Time	Lead I	Lead II	Lead III	aVR	aVL	aVF0	-0.000999	-0.000184	0.000815	0.000684	-0.001048	0.0003640.005	-0.020875	-0.003882	0.016994	0.014294	-0.021864	0.007570.01	-0.091328	-0.016914	0.074414	0.062494	-0.095691	0.0331980.015	-0.211478	-0.039379	0.172099	0.144832	-0.221458	0.0766260.02	-0.351097	-0.066161	0.284937	0.240904	-0.367214	0.126310.025	-0.477481	-0.090775	0.386706	0.328082	-0.498938	0.1708560.03	-0.571467	-0.108892	0.462575	0.392805	-0.597004	0.2041990.035	-0.629367	-0.120092	0.509275	0.4327	-0.657395	0.2246950.04	-0.657726	-0.125848	0.531878	0.452396	-0.686818	0.2344220.045	-0.666879	-0.127631	0.539247	0.45871	-0.696357	0.2376460.05	-0.666099	-0.127349	0.53875	0.458097	-0.695619	0.2375220.055	-0.661618	-0.126656	0.534962	0.45511	-0.690846	0.2357350.06	-0.656845	-0.125773	0.531072	0.451844	-0.685844	0.2339990.065	-0.653022	-0.124737	0.528285	0.449039	-0.682027	0.2329880.07	-0.650103	-0.124005	0.526098	0.446932	-0.67908	0.2321480.075	-0.647692	-0.123425	0.524267	0.445204	-0.67663	0.2314260.08	-0.645467	-0.122647	0.52282	0.44347	-0.67451	0.231040.085	-0.643167	-0.121979	0.521188	0.441757	-0.67224	0.2304840.09	-0.64074	-0.121704	0.519036	0.440197	-0.669597	0.22940.095	-0.638281	-0.121408	0.516873	0.438607	-0.666929	0.2283220.1	-0.635842	-0.121093	0.514749	0.437016	-0.664294	0.2272780.105	-0.633393	-0.121023	0.512369	0.435562	-0.661506	0.2259440.11	-0.630921	-0.120787	0.510135	0.433999	-0.658789	0.224790.115	-0.628359	-0.120107	0.508253	0.432127	-0.656223	0.2240960.12	-0.625681	-0.119563	0.506118	0.430266	-0.653444	0.2231780.125	-0.622995	-0.119141	0.503854	0.428472	-0.650586	0.2221140.13	-0.620415	-0.118387	0.502029	0.426548	-0.648043	0.2214960.135	-0.617882	-0.117608	0.500273	0.424635	-0.645567	0.2209320.14	-0.615335	-0.11719	0.498144	0.422923	-0.642867	0.2199440.145	-0.61287	-0.116684	0.496186	0.421208	-0.640313	0.2191050.15	-0.610447	-0.115818	0.494629	0.419309	-0.638016	0.2187070.155	-0.607951	-0.115013	0.492939	0.417403	-0.635599	0.2181960.16	-0.605495	-0.1143	0.491195	0.415574	-0.633174	0.21760.165	-0.603158	-0.11384	0.489318	0.413959	-0.630741	0.2167820.17	-0.600825	-0.113888	0.486937	0.41264	-0.628019	0.215380.175	-0.598442	-0.113948	0.484494	0.411298	-0.625233	0.2139350.18	-0.596007	-0.113647	0.482359	0.409719	-0.622595	0.2128760.185	-0.593514	-0.113384	0.48013	0.408128	-0.619868	0.211740.19	-0.590955	-0.113365	0.477591	0.406639	-0.616925	0.2102860.195	-0.588397	-0.113106	0.475291	0.405013	-0.614121	0.2091080.2	-0.585849	-0.11251	0.473339	0.403197	-0.611522	0.2083250.205	-0.583243	-0.11203	0.471213	0.401416	-0.60879	0.2073740.21	-0.580681	-0.11151	0.469171	0.399636	-0.606132	0.2064960.215	-0.578262	-0.110822	0.467439	0.397843	-0.603735	0.2058930.22	-0.575924	-0.110383	0.46554	0.396239	-0.601289	0.205050.225	-0.573646	-0.110031	0.463615	0.394721	-0.598863	0.2041420.23	-0.571476	-0.109443	0.462033	0.393129	-0.596696	0.2035680.235	-0.569294	-0.108951	0.460343	0.391585	-0.594461	0.2028760.24	-0.566995	-0.108784	0.458211	0.390161	-0.591903	0.2017420.245	-0.564655	-0.108501	0.456154	0.388647	-0.589364	0.2007180.25	-0.562275	-0.108014	0.454261	0.386992	-0.586897	0.1999050.255	-0.559859	-0.107777	0.452082	0.385459	-0.584244	0.1987850.26	-0.557543	-0.107604	0.44994	0.384022	-0.58167	0.1976480.265	-0.555394	-0.107104	0.44829	0.382493	-0.579477	0.1969840.27	-0.553213	-0.106562	0.446651	0.380921	-0.577272	0.196350.275	-0.550898	-0.106065	0.444833	0.379298	-0.574886	0.1955880.28	-0.548521	-0.105492	0.443029	0.377595	-0.572472	0.1948770.285	-0.546091	-0.105148	0.440943	0.375993	-0.569864	0.1938710.29	-0.543686	-0.10497	0.438716	0.374502	-0.56719	0.1926880.295	-0.541431	-0.104511	0.43692	0.372934	-0.564851	0.1919170.3	-0.539325	-0.103993	0.435332	0.371419	-0.562718	0.1912990.305	-0.537165	-0.103791	0.433374	0.370056	-0.560341	0.1902850.31	-0.53491	-0.103429	0.431481	0.368545	-0.557945	0.18940.315	-0.532688	-0.102695	0.429993	0.366838	-0.555803	0.1889650.32	-0.530528	-0.102136	0.428392	0.365269	-0.553632	0.1883640.325	-0.52841	-0.101743	0.426667	0.363819	-0.551414	0.1875950.33	-0.526241	-0.10111	0.425132	0.362201	-0.549275	0.1870740.335	-0.523682	-0.100267	0.423415	0.360237	-0.546806	0.186570.34	-0.520773	-0.099229	0.421544	0.357958	-0.544047	0.1860890.345	-0.518059	-0.098091	0.419967	0.355734	-0.541569	0.1858350.35	-0.515744	-0.09736	0.418384	0.353975	-0.539319	0.1853430.355	-0.513726	-0.097216	0.41651	0.352728	-0.537072	0.1843450.36	-0.511921	-0.097081	0.41484	0.351607	-0.535066	0.1834580.365	-0.510196	-0.096631	0.413565	0.350351	-0.533333	0.1829820.37	-0.508294	-0.096266	0.412028	0.349042	-0.531348	0.1823050.375	-0.506145	-0.096047	0.410098	0.347676	-0.528993	0.1813180.38	-0.503832	-0.09572	0.408112	0.346151	-0.526511	0.1803590.385	-0.501352	-0.095517	0.405835	0.344602	-0.523764	0.1791620.39	-0.498829	-0.095568	0.403261	0.343175	-0.520821	0.1776460.395	-0.496475	-0.095344	0.401131	0.341687	-0.518233	0.1765460.4	-0.494213	-0.094986	0.399227	0.340174	-0.515828	0.1756540.405	-0.491957	-0.094818	0.397139	0.338775	-0.51332	0.1745450.41	-0.489807	-0.094423	0.395385	0.337305	-0.511066	0.1737610.415	-0.487761	-0.093617	0.394144	0.335659	-0.509167	0.1735090.42	-0.485667	-0.09298	0.392687	0.334081	-0.507117	0.1730360.425	-0.483477	-0.092618	0.390859	0.332608	-0.504798	0.172190.43	-0.481245	-0.09209	0.389156	0.331015	-0.502526	0.1715110.435	-0.478983	-0.091487	0.387496	0.329361	-0.500261	0.1709010.44	-0.476731	-0.090975	0.385755	0.327765	-0.497956	0.1701910.445	-0.474568	-0.090413	0.384155	0.326192	-0.495784	0.1695920.45	-0.472513	-0.090037	0.382476	0.324788	-0.493628	0.1688390.455	-0.470464	-0.089933	0.380532	0.323545	-0.491323	0.1677770.46	-0.468461	-0.089693	0.378768	0.32225	-0.489148	0.1668970.465	-0.466558	-0.089276	0.377282	0.320911	-0.487191	0.166280.47	-0.464628	-0.089018	0.375611	0.319647	-0.485112	0.1654640.475	-0.46255	-0.08872	0.37383	0.318275	-0.482884	0.1646090.48	-0.460331	-0.087991	0.37234	0.316574	-0.480743	0.1641690.485	-0.457992	-0.087263	0.370729	0.314803	-0.478462	0.163660.49	-0.455636	-0.08697	0.368666	0.313273	-0.47591	0.1626370.495	-0.453503	-0.086657	0.366846	0.311862	-0.473629	0.1617670.5	-0.451547	-0.086261	0.365287	0.310503	-0.471599	0.1610960.505	-0.449558	-0.086064	0.363494	0.309241	-0.469416	0.1601750.51	-0.447511	-0.085754	0.361756	0.307881	-0.46723	0.159350.515	-0.44549	-0.085146	0.360343	0.306363	-0.465248	0.1588850.52	-0.443377	-0.084716	0.358661	0.304894	-0.463056	0.1581620.525	-0.441179	-0.08453	0.35665	0.303518	-0.460627	0.1571080.53	-0.439032	-0.084198	0.354833	0.302087	-0.458338	0.1562510.535	-0.436922	-0.08389	0.353031	0.300691	-0.456079	0.1553880.54	-0.434799	-0.083767	0.351032	0.299394	-0.4537	0.1543060.545	-0.432663	-0.083433	0.34923	0.297968	-0.451426	0.1534580.55	-0.430536	-0.08289	0.347646	0.296427	-0.449284	0.1528570.555	-0.428401	-0.082393	0.346008	0.294907	-0.447105	0.1521980.56	-0.426293	-0.081745	0.344548	0.293316	-0.445045	0.1517290.565	-0.424251	-0.081073	0.343178	0.291749	-0.443075	0.1513270.57	-0.422246	-0.080793	0.341454	0.29043	-0.440922	0.1504930.575	-0.420302	-0.08066	0.339642	0.289231	-0.438754	0.1495230.58	-0.418466	-0.080357	0.338109	0.287995	-0.436809	0.1488140.585	-0.416634	-0.080198	0.336436	0.286846	-0.434785	0.1479390.59	-0.414707	-0.080199	0.334508	0.285734	-0.432559	0.1468260.595	-0.412756	-0.079838	0.332918	0.284399	-0.430515	0.1461160.6	-0.410737	-0.079201	0.331537	0.282866	-0.428552	0.1456860.605	-0.408603	-0.078706	0.329896	0.281348	-0.426372	0.1450240.61	-0.406477	-0.078229	0.328248	0.279845	-0.424193	0.1443480.615	-0.404462	-0.077727	0.326735	0.278392	-0.422157	0.1437650.62	-0.402496	-0.077519	0.324978	0.277137	-0.420007	0.1428710.625	-0.400536	-0.077401	0.323135	0.275937	-0.417812	0.1418750.63	-0.398608	-0.077016	0.321592	0.274602	-0.415808	0.1412060.635	-0.396711	-0.076677	0.320034	0.273311	-0.413813	0.1405020.64	-0.394811	-0.076604	0.318207	0.272172	-0.411661	0.1394890.645	-0.392887	-0.076281	0.316606	0.270874	-0.409625	0.1387510.65	-0.390908	-0.075585	0.315323	0.269329	-0.407742	0.1384130.655	-0.388901	-0.075008	0.313894	0.267838	-0.405759	0.1379210.66	-0.386964	-0.074468	0.312495	0.266408	-0.403833	0.1374250.665	-0.385112	-0.073788	0.311324	0.264946	-0.402088	0.1371410.67	-0.383239	-0.073414	0.309824	0.263649	-0.40014	0.1364910.675	-0.381355	-0.073288	0.308067	0.262488	-0.398038	0.135550.68	-0.379531	-0.072921	0.30661	0.261224	-0.396144	0.134920.685	-0.377669	-0.072563	0.305106	0.259942	-0.3942	0.1342580.69	-0.375667	-0.072287	0.30338	0.258626	-0.392048	0.1334220.695	-0.373645	-0.071683	0.301961	0.25711	-0.390061	0.1329510.7	-0.371673	-0.070904	0.300769	0.255522	-0.388234	0.1327120.705	-0.36972	-0.070456	0.299264	0.254135	-0.386238	0.1321030.71	-0.367869	-0.070217	0.297652	0.252929	-0.384238	0.1313090.715	-0.366142	-0.069827	0.296315	0.251707	-0.382469	0.1307620.72	-0.364358	-0.069402	0.294956	0.250431	-0.380655	0.1302240.725	-0.362472	-0.068874	0.293598	0.249038	-0.378782	0.1297440.73	-0.360636	-0.068161	0.292475	0.247566	-0.377074	0.1295080.735	-0.358825	-0.06772	0.291105	0.246265	-0.375237	0.1289720.74	-0.356987	-0.067597	0.28939	0.245134	-0.373186	0.1280520.745	-0.355158	-0.067423	0.287735	0.243977	-0.371174	0.1271970.75	-0.353315	-0.06734	0.285975	0.242866	-0.369094	0.1262290.755	-0.351471	-0.067366	0.284105	0.241816	-0.36695	0.1251340.76	-0.349674	-0.067036	0.282638	0.240588	-0.365066	0.1244780.765	-0.347928	-0.066407	0.281522	0.239216	-0.363413	0.1241970.77	-0.346127	-0.066083	0.280045	0.237989	-0.36152	0.1235310.775	-0.344297	-0.065911	0.278386	0.236833	-0.359506	0.1226720.78	-0.342489	-0.065402	0.277087	0.235496	-0.357712	0.1222160.785	-0.340636	-0.064864	0.275772	0.234115	-0.355883	0.1217680.79	-0.338716	-0.064515	0.274201	0.232806	-0.353868	0.1210620.795	-0.336792	-0.064077	0.272716	0.231442	-0.3519	0.1204580.8	-0.334822	-0.063899	0.270923	0.230202	-0.349727	0.1195250.805	-0.332768	-0.06421	0.268557	0.229195	-0.347175	0.117980.81	-0.330725	-0.064381	0.266343	0.228114	-0.344717	0.1166030.815	-0.328824	-0.063916	0.264908	0.226748	-0.342791	0.1160430.82	-0.327047	-0.063237	0.26381	0.225331	-0.341131	0.11580.825	-0.32537	-0.062627	0.262742	0.22401	-0.339547	0.1155360.83	-0.323776	-0.061832	0.261944	0.22263	-0.338165	0.1155350.835	-0.322143	-0.06108	0.261064	0.221254	-0.336715	0.1154610.84	-0.320399	-0.060708	0.259691	0.220032	-0.334915	0.1148830.845	-0.318593	-0.060446	0.258147	0.218838	-0.332981	0.1141430.85	-0.3168	-0.06028	0.25652	0.217707	-0.331006	0.1132990.855	-0.315025	-0.060273	0.254752	0.216678	-0.328961	0.1122830.86	-0.313344	-0.059939	0.253406	0.215515	-0.327213	0.1116980.865	-0.311697	-0.059338	0.252359	0.214217	-0.325658	0.1114410.87	-0.309913	-0.059054	0.250859	0.213023	-0.323762	0.1107390.875	-0.308015	-0.058845	0.24917	0.211807	-0.321691	0.1098840.88	-0.306111	-0.0583	0.24781	0.210393	-0.319806	0.1094140.885	-0.304238	-0.057766	0.246473	0.209003	-0.317953	0.108950.89	-0.302383	-0.057495	0.244888	0.207776	-0.315967	0.1081910.895	-0.300656	-0.057108	0.243548	0.206555	-0.314196	0.1076410.9	-0.299034	-0.056672	0.242362	0.205367	-0.312575	0.1072080.905	-0.297396	-0.056463	0.240933	0.2043	-0.310805	0.1065040.91	-0.295761	-0.056246	0.239515	0.203232	-0.309042	0.105810.915	-0.294108	-0.056005	0.238103	0.202138	-0.307272	0.1051350.92	-0.292392	-0.055975	0.236417	0.20113	-0.305308	0.1041780.925	-0.290691	-0.055867	0.234824	0.200085	-0.303406	0.1033210.93	-0.289036	-0.055476	0.23356	0.198904	-0.301721	0.1028160.935	-0.287324	-0.055243	0.232081	0.197781	-0.299878	0.1020980.94	-0.285544	-0.055268	0.230276	0.196768	-0.297808	0.1010410.945	-0.283743	-0.054984	0.228759	0.195564	-0.295893	0.1003290.95	-0.281868	-0.054322	0.227545	0.194099	-0.294109	0.100010.955	-0.279887	-0.053756	0.226132	0.192629	-0.29215	0.0995210.96	-0.277946	-0.05314	0.224807	0.191153	-0.290264	0.0991120.965	-0.276203	-0.052381	0.223821	0.189708	-0.288689	0.0989810.97	-0.274619	-0.051836	0.222784	0.188479	-0.287176	0.0986970.975	-0.273198	-0.051318	0.22188	0.187359	-0.285833	0.0984740.98	-0.271915	-0.050559	0.221356	0.186181	-0.28479	0.0986090.985	-0.270577	-0.050068	0.220509	0.185125	-0.283529	0.0984040.99	-0.26899	-0.050039	0.218952	0.184192	-0.281713	0.0975220.995	-0.26726	-0.049914	0.217347	0.18312	-0.279788	0.0966681	-0.265455	-0.049595	0.21586	0.181894	-0.277887	0.0959941.005	-0.263663	-0.049434	0.214229	0.180766	-0.275911	0.0951451.01	-0.262	-0.049252	0.212748	0.179701	-0.274096	0.0943951.015	-0.260429	-0.048881	0.211549	0.17858	-0.272496	0.0939161.02	-0.258836	-0.048655	0.210181	0.17753	-0.270787	0.0932571.025	-0.257274	-0.048479	0.208795	0.176526	-0.269085	0.0925581.03	-0.255738	-0.048245	0.207493	0.175504	-0.267446	0.0919421.035	-0.254088	-0.04831	0.205778	0.174589	-0.265503	0.0909141.04	-0.25239	-0.048528	0.203862	0.173735	-0.263417	0.0896821.045	-0.25078	-0.048342	0.202438	0.172698	-0.261665	0.0889671.05	-0.249182	-0.04794	0.201242	0.171544	-0.260052	0.0885081.055	-0.247512	-0.047723	0.199789	0.170454	-0.258249	0.0877951.06	-0.245891	-0.047408	0.198483	0.169336	-0.25656	0.0872241.065	-0.244371	-0.046837	0.197535	0.168129	-0.255135	0.0870061.07	-0.242767	-0.046494	0.196273	0.167005	-0.25348	0.0864751.075	-0.24108	-0.046245	0.194835	0.165887	-0.251675	0.0857881.08	-0.239486	-0.045767	0.19372	0.164691	-0.250112	0.0854211.085	-0.237915	-0.045429	0.192486	0.163589	-0.248492	0.0849031.09	-0.236322	-0.045297	0.191025	0.162593	-0.246729	0.0841361.095	-0.234802	-0.044939	0.189863	0.161508	-0.24518	0.0836721.1	-0.233275	-0.044417	0.188858	0.160325	-0.243718	0.0833931.105	-0.231634	-0.044158	0.187476	0.159229	-0.241974	0.0827451.11	-0.230046	-0.043961	0.186085	0.158198	-0.240253	0.0820551.115	-0.228626	-0.043443	0.185183	0.157079	-0.238913	0.0818341.12	-0.227213	-0.043048	0.184165	0.156035	-0.237509	0.0814741.125	-0.225701	-0.042907	0.182794	0.155081	-0.235844	0.0807631.13	-0.224171	-0.0426	0.181571	0.15402	-0.234256	0.0802351.135	-0.222593	-0.042223	0.18037	0.152892	-0.232651	0.0797591.14	-0.220885	-0.041947	0.178938	0.151746	-0.230837	0.0790921.145	-0.219124	-0.041619	0.177505	0.15054	-0.228994	0.0784541.15	-0.217353	-0.041444	0.175908	0.149416	-0.227049	0.0776331.155	-0.215632	-0.041484	0.174148	0.148446	-0.225039	0.0765931.16	-0.21408	-0.041235	0.172845	0.147406	-0.223391	0.0759851.165	-0.212565	-0.040675	0.17189	0.146208	-0.221965	0.0757571.17	-0.210887	-0.040303	0.170584	0.145024	-0.220242	0.0752181.175	-0.20919	-0.040054	0.169136	0.143901	-0.218426	0.0745251.18	-0.207667	-0.039741	0.167925	0.142841	-0.216848	0.0740071.185	-0.206272	-0.039692	0.16658	0.142008	-0.215266	0.0732581.19	-0.204955	-0.039905	0.16505	0.14137	-0.213623	0.0722531.195	-0.203681	-0.039861	0.16382	0.140609	-0.212177	0.0715681.2	-0.202387	-0.039642	0.162745	0.139736	-0.210809	0.0710731.205	-0.201093	-0.039474	0.161619	0.138891	-0.209412	0.0705211.21	-0.199921	-0.039081	0.16084	0.137988	-0.208285	0.0702971.215	-0.198887	-0.038586	0.160302	0.137105	-0.207378	0.0702731.22	-0.197785	-0.038313	0.159472	0.136311	-0.206262	0.0699521.225	-0.196433	-0.037998	0.158434	0.135349	-0.204882	0.0695341.23	-0.194882	-0.037364	0.157518	0.134088	-0.203458	0.069371.235	-0.193248	-0.036734	0.156514	0.13278	-0.201935	0.0691551.24	-0.191598	-0.036382	0.155216	0.131624	-0.200233	0.0686091.245	-0.19001	-0.035966	0.154045	0.130467	-0.19864	0.0681731.25	-0.188444	-0.035538	0.152906	0.129316	-0.197078	0.0677621.255	-0.186868	-0.035532	0.151336	0.128403	-0.195262	0.0668591.26	-0.185371	-0.035539	0.149831	0.127542	-0.193529	0.0659861.265	-0.183935	-0.035411	0.148524	0.12664	-0.191946	0.0653061.27	-0.182452	-0.035436	0.147016	0.125798	-0.190219	0.0644211.275	-0.180938	-0.03529	0.145648	0.124839	-0.188554	0.0637151.28	-0.17943	-0.034616	0.144813	0.123579	-0.187202	0.0636221.285	-0.177868	-0.03391	0.143958	0.12227	-0.185806	0.0635361.29	-0.176296	-0.033565	0.142731	0.121163	-0.18419	0.0630271.295	-0.174865	-0.033192	0.141673	0.120122	-0.182754	0.0626321.3	-0.173506	-0.032683	0.140823	0.119043	-0.181478	0.0624351.305	-0.172122	-0.032324	0.139797	0.118037	-0.180086	0.062051.31	-0.17074	-0.031944	0.138796	0.11702	-0.178711	0.0616911.315	-0.169405	-0.031581	0.137824	0.116039	-0.177378	0.0613391.32	-0.168103	-0.03149	0.136613	0.115235	-0.175928	0.0606931.325	-0.166878	-0.031371	0.135507	0.114459	-0.174582	0.0601231.33	-0.16575	-0.031013	0.134737	0.113601	-0.173486	0.0598851.335	-0.164527	-0.030791	0.133736	0.112767	-0.172203	0.0594361.34	-0.16312	-0.030739	0.132381	0.111924	-0.170608	0.0586831.345	-0.161673	-0.030424	0.131249	0.110907	-0.169118	0.0582111.35	-0.160166	-0.030063	0.130103	0.109829	-0.167586	0.0577581.355	-0.158551	-0.030095	0.128456	0.108915	-0.165703	0.0567881.36	-0.157013	-0.030086	0.126927	0.108022	-0.163933	0.0559111.365	-0.155651	-0.029807	0.125844	0.107074	-0.162521	0.0554471.37	-0.154316	-0.02966	0.124656	0.106218	-0.161064	0.0548461.375	-0.152908	-0.029532	0.123376	0.105332	-0.159513	0.0541811.38	-0.151522	-0.029205	0.122317	0.104343	-0.158101	0.0537581.385	-0.150159	-0.029012	0.121147	0.103445	-0.156639	0.0531941.39	-0.148756	-0.028983	0.119773	0.102617	-0.155035	0.0524181.395	-0.147421	-0.028669	0.118752	0.101666	-0.153675	0.0520091.4	-0.146159	-0.028114	0.118045	0.100617	-0.152538	0.0519211.405	-0.144827	-0.02782	0.117007	0.099677	-0.15117	0.0514921.41	-0.14348	-0.02766	0.115819	0.098807	-0.149706	0.0508991.415	-0.142261	-0.027301	0.11496	0.097897	-0.148507	0.050611.42	-0.141062	-0.026984	0.114078	0.097022	-0.147305	0.0502831.425	-0.139826	-0.026732	0.113094	0.096162	-0.146023	0.0498621.43	-0.138557	-0.026433	0.112124	0.095257	-0.144731	0.0494741.435	-0.137183	-0.026423	0.11076	0.094458	-0.14315	0.0486921.44	-0.13577	-0.02647	0.109301	0.093669	-0.141492	0.0478221.445	-0.134527	-0.02611	0.108417	0.092744	-0.140263	0.0475191.45	-0.133373	-0.025652	0.107721	0.091813	-0.139196	0.0473821.455	-0.132131	-0.025406	0.106724	0.090954	-0.137903	0.0469491.46	-0.130785	-0.025023	0.105762	0.089956	-0.13657	0.0466151.465	-0.129386	-0.024421	0.104965	0.088801	-0.135303	0.0465021.47	-0.12791	-0.024122	0.103789	0.087776	-0.133771	0.0459961.475	-0.126465	-0.024064	0.102402	0.086908	-0.132136	0.0452291.48	-0.125103	-0.023887	0.101216	0.08602	-0.130665	0.0446451.485	-0.123793	-0.023773	0.10002	0.085198	-0.129219	0.0440211.49	-0.122581	-0.023636	0.098945	0.084418	-0.127898	0.043481.495	-0.121506	-0.023168	0.098338	0.083527	-0.126927	0.04341.5	-0.120399	-0.022693	0.097706	0.082614	-0.125923	0.0433091.505	-0.119126	-0.022468	0.096659	0.081749	-0.124583	0.0428341.51	-0.117811	-0.022111	0.095701	0.080784	-0.123271	0.0424871.515	-0.116597	-0.021511	0.095086	0.079737	-0.122215	0.0424781.52	-0.115438	-0.021128	0.09431	0.078846	-0.121098	0.0422521.525	-0.114319	-0.020959	0.09336	0.078103	-0.119904	0.0418011.53	-0.113206	-0.020624	0.092583	0.077267	-0.118812	0.0415461.535	-0.111954	-0.020444	0.091509	0.07644	-0.117469	0.0410291.54	-0.110627	-0.020625	0.090002	0.075778	-0.115833	0.0400551.545	-0.109471	-0.020726	0.088746	0.075169	-0.11444	0.0392711.55	-0.108479	-0.020811	0.087668	0.074646	-0.113245	0.03861.555	-0.107494	-0.02102	0.086474	0.074198	-0.111988	0.037791.56	-0.106465	-0.02096	0.085505	0.073569	-0.110833	0.0372651.565	-0.105303	-0.020486	0.084817	0.072624	-0.109766	0.0371411.57	-0.103931	-0.02011	0.083821	0.071615	-0.108399	0.0367831.575	-0.102457	-0.019873	0.082584	0.070627	-0.106833	0.0362061.58	-0.101077	-0.019414	0.081663	0.069566	-0.105505	0.0359391.585	-0.099768	-0.019037	0.080731	0.068592	-0.104211	0.0356191.59	-0.098501	-0.019001	0.0795	0.06784	-0.102769	0.0349291.595	-0.09727	-0.018799	0.078471	0.067012	-0.101464	0.0344521.6	-0.095946	-0.018453	0.077493	0.066048	-0.100135	0.0340871.605	-0.094519	-0.018187	0.076332	0.065071	-0.09864	0.033571.61	-0.093133	-0.017717	0.075415	0.063999	-0.097311	0.0333121.615	-0.091897	-0.017179	0.074718	0.062975	-0.096195	0.033221.62	-0.090722	-0.016951	0.073772	0.062165	-0.094971	0.0328051.625	-0.0896	-0.016791	0.072809	0.061425	-0.093767	0.0323421.63	-0.088588	-0.01647	0.072119	0.060655	-0.092784	0.0321291.635	-0.087568	-0.016438	0.071131	0.060048	-0.091625	0.0315771.64	-0.086445	-0.016699	0.069747	0.05955	-0.090178	0.0306271.645	-0.085242	-0.016687	0.068555	0.058849	-0.088795	0.0299461.65	-0.083939	-0.016471	0.067468	0.057971	-0.087414	0.0294431.655	-0.082563	-0.016386	0.066177	0.057128	-0.085875	0.0287471.66	-0.081241	-0.01617	0.065071	0.05624	-0.084473	0.0282331.665	-0.080038	-0.015756	0.064281	0.055307	-0.083322	0.0280161.67	-0.07894	-0.015523	0.063417	0.054538	-0.082189	0.0276511.675	-0.077938	-0.015303	0.062634	0.053833	-0.081159	0.0273261.68	-0.077084	-0.014936	0.062148	0.053128	-0.080385	0.0272571.685	-0.076261	-0.014799	0.061462	0.052574	-0.079515	0.0269411.69	-0.075253	-0.014978	0.060274	0.052095	-0.078247	0.0261521.695	-0.074139	-0.014929	0.05921	0.051423	-0.076989	0.0255661.7	-0.073019	-0.014522	0.058497	0.050541	-0.07593	0.0253891.705	-0.071821	-0.014198	0.057622	0.049663	-0.074734	0.0250711.71	-0.070556	-0.013894	0.056662	0.048757	-0.073449	0.0246921.715	-0.069317	-0.013428	0.055889	0.047773	-0.072288	0.0245151.72	-0.068109	-0.013075	0.055035	0.046872	-0.071097	0.0242261.725	-0.066996	-0.012612	0.054384	0.045961	-0.070078	0.0241171.73	-0.065971	-0.011967	0.054004	0.044998	-0.069268	0.024271.735	-0.064931	-0.011686	0.053245	0.044235	-0.068229	0.0239941.74	-0.063856	-0.011749	0.052107	0.04365	-0.066951	0.0233011.745	-0.062845	-0.011716	0.05113	0.043048	-0.065804	0.0227561.75	-0.061853	-0.011638	0.050215	0.04243	-0.064703	0.0222731.755	-0.06077	-0.011754	0.049016	0.041872	-0.063385	0.0215131.76	-0.059697	-0.011734	0.047963	0.041241	-0.062158	0.0209171.765	-0.058651	-0.01148	0.047171	0.04049	-0.061097	0.0206061.77	-0.057604	-0.011401	0.046202	0.03984	-0.059933	0.0200921.775	-0.05656	-0.011358	0.045202	0.039212	-0.058752	0.019541.78	-0.055456	-0.011026	0.04443	0.038384	-0.057669	0.0192851.785	-0.054248	-0.010737	0.043511	0.037519	-0.056442	0.0189221.79	-0.053087	-0.010501	0.042586	0.036713	-0.055237	0.0185241.795	-0.052024	-0.010048	0.041976	0.035837	-0.054271	0.0184341.8	-0.050931	-0.009713	0.041218	0.035013	-0.053202	0.0181891.805	-0.049708	-0.009846	0.039862	0.034383	-0.051713	0.0173291.81	-0.048473	-0.009949	0.038524	0.03373	-0.050228	0.0164971.815	-0.047351	-0.009657	0.037695	0.032913	-0.049101	0.0161881.82	-0.046287	-0.009481	0.036806	0.032198	-0.047974	0.0157761.825	-0.045324	-0.009364	0.03596	0.031574	-0.046929	0.0153551.83	-0.044512	-0.008946	0.035567	0.030864	-0.046234	0.015371.835	-0.043701	-0.008445	0.035256	0.030107	-0.045586	0.015481.84	-0.042844	-0.007954	0.03489	0.029328	-0.04488	0.0155521.845	-0.041972	-0.007272	0.0347	0.028431	-0.044267	0.0158361.85	-0.041014	-0.006748	0.034266	0.027575	-0.043463	0.0158871.855	-0.039884	-0.006832	0.033052	0.026972	-0.04211	0.0151381.86	-0.038681	-0.007186	0.031495	0.026481	-0.040516	0.0140341.865	-0.037534	-0.007386	0.030147	0.025934	-0.039076	0.0131411.87	-0.036432	-0.007659	0.028773	0.025456	-0.037647	0.012191.875	-0.035347	-0.007904	0.027443	0.024971	-0.036252	0.011281.88	-0.034341	-0.00775	0.026591	0.024302	-0.035179	0.0108781.885	-0.033371	-0.007488	0.025883	0.02359	-0.034211	0.010621.89	-0.032289	-0.007258	0.025032	0.022832	-0.033094	0.0102621.895	-0.031196	-0.006801	0.024395	0.021937	-0.032095	0.0101581.9	-0.030123	-0.00641	0.023713	0.021092	-0.031082	0.009991.905	-0.029078	-0.006219	0.022859	0.020379	-0.029986	0.0096071.91	-0.028124	-0.005756	0.022368	0.019561	-0.029151	0.0095911.915	-0.027229	-0.005199	0.02203	0.018722	-0.028439	0.0097171.92	-0.026361	-0.005072	0.021289	0.018148	-0.02751	0.0093631.925	-0.025531	-0.005052	0.020479	0.017657	-0.026564	0.0089061.93	-0.024727	-0.004699	0.020028	0.016989	-0.025839	0.0088511.935	-0.023837	-0.004361	0.019476	0.01628	-0.025006	0.0087261.94	-0.022826	-0.004251	0.018576	0.015633	-0.023903	0.0082711.945	-0.021775	-0.003942	0.017833	0.014848	-0.022867	0.008021.95	-0.020705	-0.003531	0.017174	0.013993	-0.02187	0.0078771.955	-0.019597	-0.00327	0.016327	0.013203	-0.020741	0.0075381.96	-0.018492	-0.002934	0.015557	0.01237	-0.019658	0.0072881.965	-0.017401	-0.002679	0.014722	0.011593	-0.018546	0.0069531.97	-0.01638	-0.002915	0.013466	0.01114	-0.017232	0.0060921.975	-0.015459	-0.003356	0.012104	0.010863	-0.015914	0.0050511.98	-0.014624	-0.003369	0.011254	0.010388	-0.014941	0.0045521.985	-0.01373	-0.003112	0.010618	0.009723	-0.014057	0.0043341.99	-0.012678	-0.002919	0.009759	0.009005	-0.012954	0.0039491.995	-0.011492	-0.00243	0.009061	0.008038	-0.011866	0.0038292	-0.009847	-0.001319	0.008527	0.006447	-0.010608	0.0041622.005	-0.007906	-0.000293	0.007613	0.004733	-0.00896	0.0042272.01	-0.006282	0.000282	0.006564	0.003464	-0.007416	0.0039522.015	-0.005215	0.000307	0.005521	0.002834	-0.006199	0.0033652.02	-0.004642	-0.000328	0.004314	0.00287	-0.005171	0.0023022.025	-0.004452	-0.000967	0.003485	0.003128	-0.004583	0.0014542.03	-0.004407	-0.001029	0.003378	0.003138	-0.004495	0.0013562.035	-0.004168	-0.000841	0.003327	0.002892	-0.004328	0.0014352.04	-0.003571	-0.000685	0.002885	0.002457	-0.003727	0.001272.045	-0.002748	-0.000231	0.002517	0.00172	-0.00304	0.001322.05	-0.001839	0.000455	0.002294	0.000799	-0.002386	0.0015872.055	-0.000916	0.000907	0.001823	0.000005	-0.001581	0.0015762.06	-0.000023	0.001254	0.001277	-0.000711	-0.00075	0.0014612.065	0.00096	0.001448	0.000488	-0.001391	0.000272	0.0011182.07	0.002118	0.001266	-0.000851	-0.001954	0.001714	0.000242.075	0.003314	0.001125	-0.002189	-0.002563	0.003177	-0.0006142.08	0.004406	0.00127	-0.003136	-0.003277	0.004354	-0.0010772.085	0.005409	0.001304	-0.004105	-0.003876	0.005493	-0.0016182.09	0.006405	0.001142	-0.005263	-0.004357	0.006736	-0.0023792.095	0.007313	0.001215	-0.006099	-0.004924	0.007743	-0.002822.1	0.008146	0.00136	-0.006786	-0.005488	0.008621	-0.0031332.105	0.008994	0.001267	-0.007727	-0.005924	0.009654	-0.003732.11	0.009808	0.001392	-0.008416	-0.006466	0.010522	-0.0040552.115	0.010569	0.001915	-0.008654	-0.007208	0.011098	-0.0038912.12	0.011354	0.00226	-0.009094	-0.007861	0.011806	-0.0039452.125	0.012175	0.002323	-0.009851	-0.00837	0.012717	-0.0043462.13	0.012938	0.002438	-0.0105	-0.008877	0.013531	-0.0046552.135	0.013723	0.002472	-0.011251	-0.00935	0.014418	-0.0050682.14	0.014542	0.002448	-0.012094	-0.009809	0.015378	-0.0055692.145	0.015288	0.002777	-0.012511	-0.01043	0.01605	-0.005622.15	0.016006	0.003292	-0.012714	-0.011142	0.016582	-0.005442.155	0.016818	0.003526	-0.013292	-0.011745	0.017384	-0.0056382.16	0.017674	0.003729	-0.013945	-0.012357	0.018255	-0.0058982.165	0.018502	0.004138	-0.014365	-0.013071	0.018976	-0.0059042.17	0.01935	0.004344	-0.015006	-0.01368	0.019835	-0.0061562.175	0.020197	0.004329	-0.015868	-0.01416	0.020822	-0.0066622.18	0.021034	0.004385	-0.016649	-0.014675	0.021756	-0.0070812.185	0.021949	0.004253	-0.017696	-0.015127	0.022889	-0.0077622.19	0.022891	0.004006	-0.018885	-0.015529	0.02412	-0.008592.195	0.023738	0.004143	-0.019595	-0.016097	0.025018	-0.0089212.2	0.02454	0.004387	-0.020153	-0.016701	0.025803	-0.0091022.205	0.025366	0.004486	-0.02088	-0.017235	0.0267	-0.0094652.21	0.026188	0.004737	-0.021451	-0.017855	0.027505	-0.009652.215	0.027003	0.005077	-0.021926	-0.018522	0.028249	-0.0097282.22	0.02793	0.005069	-0.022861	-0.019052	0.029324	-0.0102722.225	0.028866	0.00489	-0.023976	-0.019489	0.030508	-0.0110192.23	0.029656	0.004992	-0.024664	-0.020004	0.031362	-0.0113582.235	0.030354	0.005164	-0.02519	-0.020506	0.032069	-0.0115622.24	0.031032	0.005327	-0.025705	-0.020992	0.032757	-0.0117652.245	0.031735	0.005793	-0.025942	-0.021667	0.0333	-0.0116332.25	0.032519	0.006355	-0.026164	-0.022444	0.033881	-0.0114362.255	0.033449	0.006558	-0.026891	-0.023098	0.034838	-0.011742.26	0.034396	0.006635	-0.027761	-0.02369	0.035887	-0.0121972.265	0.035224	0.006871	-0.028353	-0.024304	0.036706	-0.0124022.27	0.036054	0.00693	-0.029124	-0.024817	0.03763	-0.0128132.275	0.036898	0.006827	-0.030071	-0.025244	0.038664	-0.013422.28	0.037658	0.007024	-0.030634	-0.025797	0.039428	-0.0136312.285	0.038398	0.00724	-0.031158	-0.026349	0.040158	-0.0138092.29	0.039152	0.007287	-0.031865	-0.026812	0.041002	-0.014192.295	0.039869	0.007522	-0.032347	-0.027361	0.041694	-0.0143322.3	0.040562	0.007766	-0.032796	-0.027902	0.042353	-0.0144512.305	0.041304	0.007809	-0.033495	-0.028355	0.043185	-0.014832.31	0.042112	0.008003	-0.034109	-0.028934	0.044006	-0.0150732.315	0.042944	0.008333	-0.034611	-0.029604	0.044776	-0.0151722.32	0.043786	0.008429	-0.035357	-0.030146	0.045693	-0.0155472.325	0.044592	0.008525	-0.036067	-0.030667	0.046568	-0.0159022.33	0.045364	0.008843	-0.036521	-0.031296	0.047276	-0.015982.335	0.046189	0.008974	-0.037215	-0.031848	0.048153	-0.0163052.34	0.047114	0.008851	-0.038263	-0.032312	0.049293	-0.0169812.345	0.048059	0.008971	-0.039088	-0.032927	0.050314	-0.0173882.35	0.049006	0.009269	-0.039737	-0.033645	0.051235	-0.017592.355	0.049945	0.00943	-0.040515	-0.03428	0.052227	-0.0179472.36	0.050776	0.009698	-0.041078	-0.034915	0.053032	-0.0181172.365	0.051445	0.010065	-0.04138	-0.035512	0.053592	-0.018082.37	0.052073	0.010204	-0.041869	-0.035956	0.054238	-0.0182822.375	0.052646	0.010497	-0.04215	-0.036456	0.05473	-0.0182752.38	0.053061	0.011077	-0.041985	-0.03703	0.054875	-0.0178452.385	0.053467	0.011329	-0.042138	-0.03741	0.055198	-0.0177872.39	0.054037	0.011043	-0.042993	-0.037574	0.05602	-0.0184462.395	0.054746	0.010812	-0.043934	-0.03785	0.056973	-0.0191232.4	0.055552	0.010767	-0.044785	-0.038289	0.057929	-0.019642.405	0.056455	0.010633	-0.045822	-0.038734	0.05905	-0.0203162.41	0.057331	0.010696	-0.046635	-0.039276	0.060025	-0.0207492.415	0.058108	0.010942	-0.047166	-0.039866	0.06078	-0.0209142.42	0.058891	0.010988	-0.047903	-0.040345	0.061658	-0.0213132.425	0.059687	0.011018	-0.048669	-0.040822	0.06256	-0.0217382.43	0.060451	0.011358	-0.049093	-0.041459	0.063245	-0.0217862.435	0.061242	0.011638	-0.049604	-0.042077	0.063997	-0.021922.44	0.062093	0.011546	-0.050547	-0.042515	0.065032	-0.0225172.445	0.062866	0.011577	-0.051289	-0.04298	0.065908	-0.0229282.45	0.06356	0.011891	-0.051669	-0.043562	0.066528	-0.0229662.455	0.064246	0.012205	-0.05204	-0.044139	0.067138	-0.0229992.46	0.064822	0.012668	-0.052154	-0.044739	0.067536	-0.0227972.465	0.065389	0.013218	-0.052172	-0.045384	0.067874	-0.022492.47	0.066158	0.013348	-0.05281	-0.045903	0.068686	-0.0227832.475	0.067094	0.013257	-0.053837	-0.04639	0.069819	-0.0234292.48	0.06805	0.01331	-0.05474	-0.046973	0.070893	-0.0239192.485	0.069006	0.01323	-0.055776	-0.047479	0.072043	-0.0245642.49	0.069901	0.013174	-0.056727	-0.047963	0.073109	-0.0251462.495	0.070568	0.013463	-0.057105	-0.048515	0.073712	-0.0251962.5	0.070999	0.0137	-0.057299	-0.048901	0.074073	-0.0251722.505	0.071387	0.013488	-0.057899	-0.049002	0.074643	-0.0256412.51	0.071815	0.013266	-0.058548	-0.049122	0.075265	-0.0261442.515	0.072297	0.01336	-0.058937	-0.049454	0.075768	-0.0263132.52	0.072899	0.013441	-0.059458	-0.049848	0.076417	-0.0265682.525	0.073528	0.013608	-0.05992	-0.050308	0.077046	-0.0267382.53	0.074125	0.014055	-0.06007	-0.050911	0.077478	-0.0265672.535	0.074806	0.014346	-0.06046	-0.051472	0.078096	-0.0266242.54	0.075616	0.014316	-0.0613	-0.051922	0.079048	-0.0271262.545	0.076401	0.014441	-0.06196	-0.052447	0.079883	-0.0274352.55	0.077122	0.014696	-0.062426	-0.053011	0.080568	-0.0275572.555	0.077885	0.014672	-0.063213	-0.053437	0.081463	-0.0280252.56	0.078624	0.014713	-0.063911	-0.053888	0.082293	-0.0284052.565	0.079254	0.015019	-0.064236	-0.054429	0.082844	-0.0284152.57	0.079896	0.015145	-0.06475	-0.054872	0.083511	-0.028642.575	0.08057	0.015241	-0.065329	-0.055317	0.084235	-0.0289182.58	0.081152	0.015558	-0.065594	-0.055835	0.084724	-0.0288892.585	0.081681	0.015764	-0.065916	-0.05626	0.085215	-0.0289552.59	0.082231	0.015925	-0.066306	-0.05667	0.085758	-0.0290882.595	0.082754	0.016338	-0.066416	-0.057211	0.086123	-0.0289122.6	0.083342	0.016682	-0.06666	-0.057749	0.086603	-0.0288552.605	0.084007	0.016709	-0.067298	-0.058149	0.087356	-0.0292072.61	0.084671	0.01687	-0.067801	-0.058625	0.08803	-0.0294052.615	0.085299	0.017218	-0.068082	-0.059188	0.088555	-0.0293662.62	0.085943	0.017266	-0.068677	-0.059588	0.08927	-0.0296822.625	0.086586	0.017169	-0.069417	-0.059903	0.090069	-0.0301662.63	0.087216	0.017276	-0.06994	-0.060328	0.090734	-0.0304062.635	0.087943	0.017372	-0.070571	-0.060803	0.091518	-0.0307152.64	0.088753	0.01747	-0.071282	-0.061328	0.092396	-0.0310692.645	0.089481	0.017865	-0.071616	-0.061976	0.093009	-0.0310332.65	0.0902	0.018173	-0.072027	-0.062569	0.093662	-0.0310932.655	0.090939	0.018015	-0.072924	-0.062905	0.094606	-0.0317022.66	0.091518	0.017928	-0.073589	-0.063189	0.095324	-0.0321362.665	0.091956	0.018049	-0.073907	-0.063512	0.095761	-0.0322492.67	0.092429	0.017927	-0.074502	-0.063714	0.096377	-0.0326632.675	0.092995	0.01773	-0.075265	-0.063927	0.097144	-0.0332182.68	0.093524	0.017875	-0.075649	-0.064317	0.097672	-0.0333562.685	0.093979	0.018073	-0.075906	-0.064693	0.098083	-0.033392.69	0.094471	0.018031	-0.076441	-0.064953	0.098676	-0.0337232.695	0.095033	0.018073	-0.076959	-0.065302	0.0993	-0.0339982.7	0.095702	0.01812	-0.077582	-0.065715	0.100046	-0.0343312.705	0.096412	0.018068	-0.078344	-0.066095	0.100896	-0.03482.71	0.096992	0.018268	-0.078724	-0.066545	0.10145	-0.0349052.715	0.09744	0.018713	-0.078727	-0.06706	0.10171	-0.0346492.72	0.097952	0.018989	-0.078963	-0.067516	0.102142	-0.0346262.725	0.098555	0.01918	-0.079375	-0.067974	0.102728	-0.0347542.73	0.099132	0.019653	-0.079479	-0.068581	0.103121	-0.034542.735	0.099741	0.020056	-0.079686	-0.069165	0.103592	-0.0344272.74	0.100477	0.020113	-0.080364	-0.069623	0.104408	-0.0347862.745	0.101168	0.020183	-0.080985	-0.070062	0.105166	-0.0351042.75	0.101762	0.020088	-0.081674	-0.07035	0.105906	-0.0355562.755	0.102366	0.019619	-0.082747	-0.070428	0.106875	-0.0364472.76	0.102873	0.019268	-0.083605	-0.070518	0.107663	-0.0371452.765	0.10328	0.019079	-0.084201	-0.070644	0.108242	-0.0375982.77	0.103641	0.018869	-0.084772	-0.070731	0.10878	-0.0380492.775	0.103996	0.01906	-0.084936	-0.071047	0.10908	-0.0380342.78	0.104352	0.019708	-0.084644	-0.071626	0.109116	-0.037492.785	0.104813	0.020239	-0.084574	-0.072199	0.109343	-0.0371442.79	0.105504	0.02055	-0.084954	-0.072777	0.109961	-0.0371832.795	0.106252	0.020981	-0.085271	-0.073458	0.110576	-0.0371182.8	0.106954	0.021367	-0.085587	-0.074086	0.111164	-0.0370772.805	0.107662	0.021425	-0.086237	-0.074529	0.111948	-0.0374192.81	0.10835	0.021535	-0.086814	-0.074989	0.112678	-0.0376892.815	0.108949	0.021774	-0.087175	-0.075473	0.113232	-0.0377592.82	0.109514	0.021782	-0.087732	-0.075803	0.11388	-0.0380762.825	0.110059	0.021719	-0.08834	-0.076082	0.114546	-0.0384632.83	0.110653	0.021881	-0.088772	-0.076519	0.115138	-0.038622.835	0.111428	0.021968	-0.089459	-0.077016	0.115982	-0.0389662.84	0.112206	0.021724	-0.090482	-0.077325	0.117022	-0.0396982.845	0.11272	0.02161	-0.09111	-0.077556	0.117681	-0.0401262.85	0.113024	0.021655	-0.091368	-0.077757	0.118006	-0.0402492.855	0.113324	0.021506	-0.091818	-0.077844	0.118438	-0.0405952.86	0.113671	0.021459	-0.092212	-0.078017	0.118867	-0.0408492.865	0.114112	0.021611	-0.092501	-0.07836	0.119288	-0.0409282.87	0.114708	0.021452	-0.093256	-0.078612	0.120068	-0.0414562.875	0.115389	0.021117	-0.094272	-0.078812	0.121048	-0.0422362.88	0.116009	0.021212	-0.094796	-0.079225	0.121708	-0.0424842.885	0.116545	0.021579	-0.094966	-0.079746	0.122116	-0.042372.89	0.116997	0.021959	-0.095039	-0.080226	0.122419	-0.0421932.895	0.11731	0.022496	-0.094814	-0.080717	0.12247	-0.0417532.9	0.11763	0.022937	-0.094694	-0.081156	0.122585	-0.0414292.905	0.118136	0.022946	-0.095191	-0.081454	0.123164	-0.0417112.91	0.118755	0.022924	-0.095831	-0.081798	0.123891	-0.0420932.915	0.11933	0.023116	-0.096213	-0.082241	0.124444	-0.0422022.92	0.119957	0.023179	-0.096778	-0.08264	0.125132	-0.0424922.925	0.120658	0.023225	-0.097433	-0.083071	0.125915	-0.0428442.93	0.121301	0.023434	-0.097866	-0.083563	0.126536	-0.0429732.935	0.121844	0.023479	-0.098365	-0.083902	0.127138	-0.0432362.94	0.122313	0.023423	-0.09889	-0.084141	0.127712	-0.0435712.945	0.122722	0.023532	-0.09919	-0.08444	0.128121	-0.0436812.95	0.12315	0.02347	-0.09968	-0.084651	0.128651	-0.0442.955	0.123629	0.023167	-0.100462	-0.084752	0.129379	-0.0446262.96	0.124031	0.023151	-0.10088	-0.084976	0.129852	-0.0448772.965	0.124326	0.023432	-0.100894	-0.085308	0.130031	-0.0447232.97	0.124733	0.0234	-0.101334	-0.085525	0.13052	-0.0449952.975	0.125283	0.023123	-0.10216	-0.085682	0.131315	-0.0456322.98	0.125814	0.023158	-0.102656	-0.086009	0.131907	-0.0458982.985	0.126388	0.023281	-0.103107	-0.086411	0.132499	-0.0460882.99	0.12701	0.023328	-0.103682	-0.086798	0.13319	-0.0463922.995	0.127474	0.02361	-0.103864	-0.087229	0.133563	-0.0463343	0.127829	0.023974	-0.103855	-0.087643	0.133762	-0.0461193.005	0.12824	0.024194	-0.104045	-0.088008	0.13411	-0.0461023.01	0.128674	0.02458	-0.104094	-0.088481	0.134389	-0.0459083.015	0.129094	0.02517	-0.103924	-0.089064	0.134533	-0.0454693.02	0.129536	0.02541	-0.104125	-0.089458	0.134904	-0.0454463.025	0.130054	0.025263	-0.10479	-0.089672	0.135587	-0.0459153.03	0.130664	0.025249	-0.105415	-0.090016	0.1363	-0.0462843.035	0.131382	0.025246	-0.106137	-0.090429	0.137132	-0.0467023.04	0.132151	0.024993	-0.107158	-0.090727	0.138165	-0.0474383.045	0.132807	0.024932	-0.107875	-0.091071	0.138958	-0.0478873.05	0.133268	0.025181	-0.108088	-0.09148	0.139347	-0.0478663.055	0.133588	0.025525	-0.108063	-0.091863	0.139517	-0.0476533.06	0.133781	0.026103	-0.107678	-0.092309	0.139406	-0.0470973.065	0.133982	0.02657	-0.107412	-0.092695	0.139369	-0.0466753.07	0.134377	0.026518	-0.107858	-0.092893	0.139854	-0.0469623.075	0.134812	0.026436	-0.108376	-0.093097	0.140404	-0.0473083.08	0.135111	0.026654	-0.108457	-0.093395	0.140624	-0.0472293.085	0.135424	0.026703	-0.108721	-0.093604	0.140958	-0.0473543.09	0.135915	0.026467	-0.109448	-0.093751	0.141661	-0.0479093.095	0.136421	0.026372	-0.110048	-0.093989	0.142299	-0.048313.1	0.136872	0.026337	-0.110535	-0.094229	0.14284	-0.0486113.105	0.137395	0.026104	-0.111291	-0.094396	0.143579	-0.0491833.11	0.137922	0.026033	-0.111889	-0.094659	0.144228	-0.0495693.115	0.138389	0.026094	-0.112295	-0.094965	0.144733	-0.0497683.12	0.138885	0.026013	-0.112872	-0.095204	0.145351	-0.0501483.125	0.139359	0.026127	-0.113231	-0.095544	0.145833	-0.050293.13	0.139715	0.026546	-0.113169	-0.095991	0.146002	-0.0500113.135	0.140043	0.026716	-0.113326	-0.096279	0.146283	-0.0500043.14	0.140376	0.026368	-0.114008	-0.09627	0.146868	-0.0505993.145	0.140603	0.026048	-0.114555	-0.096215	0.147315	-0.05113.15	0.140776	0.026007	-0.114769	-0.096292	0.147539	-0.0512473.155	0.141049	0.025967	-0.115082	-0.096427	0.147877	-0.051453.16	0.141367	0.026224	-0.115143	-0.096759	0.148096	-0.0513373.165	0.141683	0.026863	-0.114821	-0.09731	0.148093	-0.0507833.17	0.142094	0.027218	-0.114876	-0.097752	0.148362	-0.050613.175	0.14263	0.027226	-0.115404	-0.098066	0.148976	-0.050913.18	0.143274	0.027195	-0.11608	-0.09842	0.149738	-0.0513183.185	0.144004	0.027019	-0.116985	-0.09874	0.150682	-0.0519423.19	0.144703	0.026871	-0.117832	-0.099059	0.151575	-0.0525163.195	0.1452	0.027185	-0.118015	-0.099526	0.151967	-0.0524413.2	0.14551	0.027756	-0.117754	-0.100036	0.151996	-0.051963.205	0.145695	0.028027	-0.117668	-0.100298	0.152052	-0.0517543.21	0.145783	0.028177	-0.117606	-0.100436	0.152068	-0.0516323.215	0.145955	0.028409	-0.117546	-0.100669	0.152132	-0.0514633.22	0.146342	0.028397	-0.117946	-0.100885	0.152587	-0.0517013.225	0.146859	0.028316	-0.118542	-0.101137	0.153229	-0.0520923.23	0.147385	0.028365	-0.11902	-0.101469	0.153809	-0.052343.235	0.147932	0.028223	-0.11971	-0.101703	0.154523	-0.052823.24	0.148474	0.028024	-0.120449	-0.101901	0.155263	-0.0533623.245	0.148898	0.028179	-0.120719	-0.102235	0.155663	-0.0534283.25	0.149282	0.028318	-0.120965	-0.102538	0.156027	-0.053493.255	0.149728	0.028104	-0.121625	-0.102671	0.156666	-0.0539943.26	0.150155	0.028075	-0.12208	-0.102901	0.157175	-0.0542733.265	0.15057	0.028398	-0.122172	-0.103327	0.157467	-0.054143.27	0.151047	0.028519	-0.122528	-0.103672	0.157948	-0.0542763.275	0.151556	0.028429	-0.123127	-0.103914	0.158589	-0.0546743.28	0.151981	0.028468	-0.123513	-0.104182	0.159056	-0.0548743.285	0.152276	0.028488	-0.123787	-0.104364	0.159385	-0.0550213.29	0.152446	0.028527	-0.12392	-0.104485	0.15956	-0.0550753.295	0.152515	0.028961	-0.123554	-0.104775	0.159389	-0.0546143.3	0.152623	0.029543	-0.12308	-0.105173	0.159177	-0.0540043.305	0.152935	0.02976	-0.123175	-0.105479	0.159412	-0.0539333.31	0.153417	0.029833	-0.123584	-0.1058	0.159926	-0.0541273.315	0.153927	0.030017	-0.12391	-0.1062	0.160409	-0.0542093.32	0.154447	0.029887	-0.12456	-0.106425	0.161085	-0.054663.325	0.154904	0.029573	-0.125331	-0.106508	0.161794	-0.0552863.33	0.155213	0.029559	-0.125654	-0.106679	0.162159	-0.055483.335	0.155467	0.029607	-0.12586	-0.106853	0.162424	-0.0555713.34	0.155744	0.029543	-0.1262	-0.106976	0.162781	-0.0558053.345	0.155974	0.029708	-0.126266	-0.107203	0.162951	-0.0557483.35	0.156204	0.029861	-0.126343	-0.107425	0.163129	-0.0557043.355	0.156465	0.029801	-0.126664	-0.10754	0.163464	-0.0559243.36	0.156718	0.029942	-0.126776	-0.107768	0.163676	-0.0559073.365	0.157006	0.030298	-0.126708	-0.10814	0.163803	-0.0556633.37	0.157422	0.030368	-0.127054	-0.10842	0.164242	-0.0558213.375	0.157854	0.030347	-0.127508	-0.108658	0.164754	-0.0560963.38	0.158228	0.030554	-0.127674	-0.108993	0.165065	-0.0560723.385	0.158561	0.030598	-0.127962	-0.109211	0.165424	-0.0562133.39	0.158877	0.030372	-0.128505	-0.109263	0.16592	-0.0566573.395	0.159162	0.030316	-0.128846	-0.109396	0.166281	-0.0568863.4	0.15951	0.030349	-0.129161	-0.109615	0.166665	-0.0570493.405	0.159985	0.030296	-0.129689	-0.109859	0.167243	-0.0573843.41	0.160483	0.030547	-0.129936	-0.110291	0.167673	-0.0573823.415	0.16094	0.030938	-0.130003	-0.110781	0.167976	-0.0571953.42	0.161417	0.030872	-0.130545	-0.111018	0.168564	-0.0575463.425	0.16186	0.030536	-0.131324	-0.11108	0.16927	-0.058193.43	0.162168	0.03058	-0.131588	-0.111283	0.1696	-0.0583173.435	0.16238	0.030771	-0.131609	-0.111515	0.169734	-0.0582193.44	0.162558	0.030889	-0.131669	-0.111686	0.169872	-0.0581853.445	0.162709	0.031289	-0.13142	-0.112005	0.169815	-0.0578113.45	0.162905	0.031755	-0.13115	-0.112387	0.169773	-0.0573863.455	0.163171	0.031789	-0.131383	-0.11256	0.170061	-0.0575013.46	0.16337	0.031638	-0.131732	-0.112588	0.170377	-0.0577893.465	0.16352	0.031492	-0.132028	-0.11259	0.170635	-0.0580443.47	0.163793	0.031103	-0.13269	-0.112523	0.171175	-0.0586523.475	0.164152	0.030798	-0.133355	-0.112554	0.171766	-0.0592113.48	0.164505	0.030925	-0.13358	-0.112832	0.1721	-0.0592683.485	0.164852	0.03105	-0.133802	-0.113104	0.172428	-0.0593243.49	0.165222	0.030938	-0.134284	-0.113253	0.17292	-0.0596673.495	0.165603	0.030987	-0.134616	-0.113502	0.173332	-0.059833.5	0.165981	0.031134	-0.134846	-0.113804	0.173682	-0.0598783.505	0.166351	0.03117	-0.135181	-0.114039	0.174089	-0.0600513.51	0.166606	0.031321	-0.135286	-0.114273	0.174297	-0.0600243.515	0.166805	0.031476	-0.135329	-0.114477	0.174437	-0.059963.52	0.167096	0.031361	-0.135735	-0.114579	0.174839	-0.0602613.525	0.167398	0.031368	-0.136031	-0.114757	0.175185	-0.0604273.53	0.167638	0.031627	-0.136011	-0.115046	0.175312	-0.0602663.535	0.16787	0.031626	-0.136244	-0.115179	0.17558	-0.0604013.54	0.168114	0.031383	-0.13673	-0.115179	0.176002	-0.0608223.545	0.168431	0.031421	-0.13701	-0.115385	0.176346	-0.0609613.55	0.168853	0.031636	-0.137218	-0.115752	0.17671	-0.0609583.555	0.169254	0.03161	-0.137644	-0.115969	0.177187	-0.0612183.56	0.169454	0.031599	-0.137855	-0.116078	0.177424	-0.0613473.565	0.169504	0.031756	-0.137748	-0.116198	0.177392	-0.0611943.57	0.169628	0.031808	-0.13782	-0.116299	0.177505	-0.0612063.575	0.169812	0.032011	-0.137802	-0.116523	0.177601	-0.0610783.58	0.169955	0.032573	-0.137382	-0.11693	0.177441	-0.0605123.585	0.170129	0.032962	-0.137167	-0.117254	0.177417	-0.0601633.59	0.170388	0.032976	-0.137412	-0.117412	0.177709	-0.0602963.595	0.170596	0.033036	-0.13756	-0.117567	0.177914	-0.0603473.6	0.170837	0.033051	-0.137785	-0.117715	0.178183	-0.0604683.605	0.171234	0.032689	-0.138545	-0.117735	0.178851	-0.0611163.61	0.171619	0.032351	-0.139267	-0.117762	0.17949	-0.0617283.615	0.171923	0.032343	-0.13958	-0.117933	0.179847	-0.0619133.62	0.172248	0.032383	-0.139865	-0.118144	0.180198	-0.0620553.625	0.172517	0.032737	-0.139781	-0.118504	0.180305	-0.0618023.63	0.172674	0.033457	-0.139217	-0.119009	0.18007	-0.0610613.635	0.17285	0.033818	-0.139032	-0.11932	0.180065	-0.0607453.64	0.173067	0.033753	-0.139314	-0.119407	0.180354	-0.0609463.645	0.173223	0.033721	-0.139502	-0.119479	0.180551	-0.0610723.65	0.173334	0.033632	-0.139701	-0.119492	0.180731	-0.0612393.655	0.173492	0.033276	-0.140216	-0.119377	0.181119	-0.0617423.66	0.173702	0.033091	-0.140611	-0.119392	0.181469	-0.0620763.665	0.173945	0.033269	-0.140676	-0.119635	0.181646	-0.0620113.67	0.174321	0.033375	-0.140946	-0.119913	0.182019	-0.0621063.675	0.174763	0.033506	-0.141257	-0.120244	0.182454	-0.0622093.68	0.175161	0.033833	-0.141328	-0.120663	0.182725	-0.0620623.685	0.175485	0.033931	-0.141554	-0.120906	0.183042	-0.0621363.69	0.175708	0.03379	-0.141918	-0.120954	0.183382	-0.0624283.695	0.175849	0.033771	-0.142079	-0.121024	0.183556	-0.0625313.7	0.176062	0.033602	-0.14246	-0.12105	0.183899	-0.0628493.705	0.176446	0.033089	-0.143358	-0.120975	0.184639	-0.0636643.71	0.17688	0.03276	-0.144119	-0.121035	0.185329	-0.0642933.715	0.177197	0.032782	-0.144414	-0.121231	0.185682	-0.0644513.72	0.177366	0.032753	-0.144614	-0.121312	0.185895	-0.0645833.725	0.177305	0.032936	-0.144369	-0.121383	0.185719	-0.0643363.73	0.177046	0.033621	-0.143425	-0.121628	0.185024	-0.0633963.735	0.176822	0.034173	-0.142649	-0.121818	0.184447	-0.0626283.74	0.176864	0.034172	-0.142692	-0.121842	0.184496	-0.0626543.745	0.177154	0.034019	-0.143134	-0.121921	0.184918	-0.0629983.75	0.177553	0.033819	-0.143733	-0.122036	0.185494	-0.0634593.755	0.17797	0.033543	-0.144427	-0.122117	0.186136	-0.0640193.76	0.178328	0.033564	-0.144764	-0.122335	0.186537	-0.0642023.765	0.178635	0.033977	-0.144658	-0.122752	0.186654	-0.0639023.77	0.178959	0.034303	-0.144655	-0.123127	0.186839	-0.0637123.775	0.179222	0.034619	-0.144603	-0.123461	0.186961	-0.0634993.78	0.179431	0.035177	-0.144254	-0.123904	0.186879	-0.0629753.785	0.1797	0.035641	-0.144059	-0.124328	0.186923	-0.0625953.79	0.180018	0.035805	-0.144213	-0.124606	0.187195	-0.0625893.795	0.180283	0.035884	-0.144398	-0.124804	0.187455	-0.0626513.8	0.180489	0.035718	-0.14477	-0.124827	0.187789	-0.0629613.805	0.180725	0.035292	-0.145433	-0.124717	0.188307	-0.063593.81	0.180893	0.035193	-0.1457	-0.124757	0.188558	-0.0638013.815	0.180925	0.035386	-0.145539	-0.124887	0.188484	-0.0635973.82	0.180988	0.035342	-0.145646	-0.124898	0.188582	-0.0636843.825	0.181098	0.035212	-0.145886	-0.124887	0.188784	-0.0638983.83	0.181159	0.035313	-0.145845	-0.12498	0.188796	-0.0638163.835	0.181209	0.035338	-0.145871	-0.125024	0.18884	-0.0638163.84	0.18135	0.035082	-0.146268	-0.124957	0.18915	-0.0641933.845	0.181596	0.034963	-0.146633	-0.12503	0.189503	-0.0644733.85	0.181939	0.034951	-0.146988	-0.125221	0.189906	-0.0646843.855	0.182338	0.034757	-0.147581	-0.12534	0.190479	-0.0651393.86	0.182676	0.034709	-0.147967	-0.125507	0.190897	-0.0653893.865	0.18293	0.034915	-0.148015	-0.125773	0.191071	-0.0652983.87	0.183182	0.034937	-0.148245	-0.125931	0.191349	-0.0654183.875	0.183479	0.03485	-0.148629	-0.126053	0.191743	-0.065693.88	0.183792	0.035035	-0.148757	-0.12634	0.191997	-0.0656573.885	0.184096	0.035196	-0.148901	-0.126608	0.192256	-0.0656483.89	0.184318	0.035095	-0.149223	-0.126678	0.19257	-0.0658923.895	0.184309	0.03514	-0.149169	-0.126699	0.192534	-0.0658353.9	0.18429	0.035343	-0.148947	-0.126806	0.192395	-0.0655893.905	0.184452	0.035453	-0.149	-0.126962	0.192519	-0.0655563.91	0.184672	0.035812	-0.14886	-0.127296	0.192565	-0.0652683.915	0.184901	0.036374	-0.148526	-0.127753	0.192504	-0.0647513.92	0.185186	0.036582	-0.148604	-0.128038	0.192714	-0.0646763.925	0.185425	0.03655	-0.148875	-0.128158	0.193008	-0.0648513.93	0.185567	0.036518	-0.14905	-0.128221	0.193191	-0.064973.935	0.185712	0.036341	-0.149371	-0.128202	0.19346	-0.0652583.94	0.185867	0.036171	-0.149697	-0.128193	0.193738	-0.0655443.945	0.185918	0.036277	-0.149641	-0.128284	0.193735	-0.0654513.95	0.18587	0.036357	-0.149513	-0.128303	0.193633	-0.065333.955	0.18589	0.036153	-0.149737	-0.128196	0.193774	-0.0655783.96	0.185999	0.036039	-0.14996	-0.128193	0.193966	-0.0657733.965	0.186132	0.036113	-0.150019	-0.128313	0.194077	-0.0657643.97	0.186307	0.036056	-0.150251	-0.128382	0.194312	-0.0659313.975	0.186529	0.036037	-0.150491	-0.128499	0.194579	-0.066083.98	0.186735	0.036018	-0.150717	-0.128606	0.194828	-0.0662213.985	0.186898	0.035607	-0.151292	-0.128463	0.195254	-0.0667913.99	0.187045	0.035183	-0.151862	-0.128304	0.195668	-0.0673643.995	0.187111	0.035292	-0.151819	-0.128404	0.195681	-0.0672774	0.187205	0.035603	-0.151602	-0.128638	0.19561	-0.0669724.005	0.18743	0.03564	-0.15179	-0.128789	0.195848	-0.0670594.01	0.187621	0.035729	-0.151892	-0.128951	0.196017	-0.0670664.015	0.187726	0.035965	-0.151761	-0.129148	0.196003	-0.0668544.02	0.187906	0.035852	-0.152054	-0.129187	0.196276	-0.067094.025	0.188155	0.035484	-0.152671	-0.129118	0.196776	-0.0676584.03	0.188396	0.035179	-0.153218	-0.129081	0.197231	-0.068154.035	0.188628	0.034819	-0.153809	-0.129008	0.197706	-0.0686994.04	0.188807	0.034707	-0.154099	-0.129046	0.197977	-0.0689314.045	0.188961	0.035106	-0.153856	-0.129365	0.197925	-0.068564.05	0.189162	0.0356	-0.153562	-0.129767	0.197872	-0.0681054.055	0.18944	0.035752	-0.153688	-0.130015	0.198105	-0.0680914.06	0.189701	0.03585	-0.153851	-0.130222	0.19835	-0.0681284.065	0.18992	0.036039	-0.153881	-0.130457	0.198493	-0.0680364.07	0.190161	0.035943	-0.154218	-0.130541	0.198827	-0.0682864.075	0.190351	0.035684	-0.154667	-0.130501	0.199196	-0.0686954.08	0.190422	0.035558	-0.154864	-0.13047	0.199351	-0.0688814.085	0.190441	0.035352	-0.155089	-0.130361	0.199492	-0.069134.09	0.19039	0.03514	-0.15525	-0.13021	0.199555	-0.0693454.095	0.190269	0.035396	-0.154873	-0.130288	0.199268	-0.068984.1	0.190182	0.035837	-0.154344	-0.130492	0.198912	-0.068424.105	0.190208	0.036013	-0.154195	-0.130609	0.198841	-0.0682324.11	0.190309	0.036202	-0.154107	-0.130776	0.198849	-0.0680734.115	0.19045	0.036537	-0.153914	-0.131051	0.198819	-0.0677674.12	0.190625	0.036558	-0.154066	-0.131164	0.199007	-0.0678434.125	0.190745	0.036314	-0.154431	-0.131093	0.199287	-0.0681944.13	0.190726	0.036236	-0.154489	-0.131036	0.19931	-0.0682734.135	0.190734	0.036082	-0.154651	-0.130952	0.199408	-0.0684564.14	0.190926	0.035872	-0.155054	-0.130942	0.199752	-0.068814.145	0.191181	0.03595	-0.155231	-0.131134	0.200001	-0.0688674.15	0.191428	0.035973	-0.155456	-0.13129	0.200273	-0.0689834.155	0.191705	0.035784	-0.15592	-0.131341	0.200701	-0.069364.16	0.191975	0.035805	-0.15617	-0.131509	0.201002	-0.0694934.165	0.192212	0.036119	-0.156093	-0.131827	0.201093	-0.0692674.17	0.192431	0.036217	-0.156214	-0.13201	0.20129	-0.069284.175	0.192555	0.036101	-0.156454	-0.132015	0.201501	-0.0694864.18	0.192485	0.036104	-0.156382	-0.131976	0.201418	-0.0694424.185	0.192395	0.035982	-0.156413	-0.131853	0.201384	-0.0695314.19	0.192401	0.03589	-0.156511	-0.131804	0.201445	-0.069644.195	0.19245	0.036271	-0.156179	-0.132052	0.201281	-0.0692294.2	0.192528	0.036687	-0.155841	-0.132337	0.201131	-0.0687944.205	0.192618	0.036764	-0.155854	-0.132434	0.201191	-0.0687564.21	0.192696	0.036874	-0.155822	-0.132542	0.201217	-0.0686744.215	0.192792	0.036907	-0.155885	-0.132617	0.201309	-0.0686924.22	0.192995	0.036611	-0.156384	-0.132563	0.201714	-0.0691514.225	0.193252	0.036397	-0.156856	-0.132588	0.202135	-0.0695474.23	0.193453	0.036581	-0.156871	-0.13281	0.20226	-0.069454.235	0.193584	0.036772	-0.156812	-0.132996	0.202301	-0.0693064.24	0.193591	0.036719	-0.156871	-0.13297	0.202339	-0.069374.245	0.193363	0.036704	-0.156659	-0.132829	0.202085	-0.0692564.25	0.193083	0.03665	-0.156433	-0.132636	0.201793	-0.0691574.255	0.19296	0.036419	-0.156541	-0.132431	0.201784	-0.0693534.26	0.19291	0.036331	-0.156578	-0.132352	0.201777	-0.0694254.265	0.19289	0.036405	-0.156485	-0.132384	0.201712	-0.0693284.27	0.192979	0.03628	-0.156699	-0.132363	0.201887	-0.0695244.275	0.193088	0.036144	-0.156944	-0.132347	0.202091	-0.0697444.28	0.193208	0.036335	-0.156873	-0.132527	0.202119	-0.0695934.285	0.193486	0.036517	-0.15697	-0.132792	0.202336	-0.0695434.29	0.19383	0.036604	-0.157226	-0.133041	0.202682	-0.0696414.295	0.194044	0.036944	-0.1571	-0.133361	0.202733	-0.0693724.3	0.194194	0.03733	-0.156865	-0.133671	0.202684	-0.0690134.305	0.194373	0.037276	-0.157098	-0.133742	0.202922	-0.0691794.31	0.194507	0.037113	-0.157394	-0.133726	0.20317	-0.0694444.315	0.194588	0.036943	-0.157644	-0.133674	0.203361	-0.0696874.32	0.194615	0.036587	-0.158029	-0.133485	0.203599	-0.0701154.325	0.194531	0.036394	-0.158137	-0.133325	0.203613	-0.0702884.33	0.194451	0.036517	-0.157934	-0.133349	0.203449	-0.07014.335	0.194504	0.03653	-0.157974	-0.133388	0.203503	-0.0701164.34	0.19466	0.036402	-0.158257	-0.133404	0.203756	-0.0703534.345	0.194851	0.03655	-0.158301	-0.133599	0.203892	-0.0702934.35	0.195097	0.036838	-0.158259	-0.133908	0.20401	-0.0701024.355	0.195411	0.036931	-0.15848	-0.134143	0.204319	-0.0701764.36	0.195618	0.037074	-0.158543	-0.134345	0.204475	-0.070134.365	0.195636	0.037207	-0.158429	-0.134432	0.20442	-0.0699884.37	0.195599	0.036893	-0.158707	-0.134229	0.204558	-0.0703294.375	0.195526	0.036546	-0.15898	-0.133987	0.204674	-0.0706874.38	0.195433	0.036679	-0.158755	-0.13401	0.20449	-0.0704814.385	0.195462	0.036853	-0.158609	-0.134127	0.204423	-0.0702964.39	0.195647	0.037063	-0.158584	-0.134355	0.204515	-0.070164.395	0.195762	0.037614	-0.158147	-0.13474	0.204329	-0.069594.4	0.195714	0.038137	-0.157577	-0.135014	0.203973	-0.0689594.405	0.195591	0.038108	-0.157483	-0.134926	0.203848	-0.0689214.41	0.195456	0.037828	-0.157628	-0.134686	0.203853	-0.0691674.415	0.195379	0.037716	-0.157663	-0.134577	0.203829	-0.0692524.42	0.195412	0.037516	-0.157896	-0.134481	0.203983	-0.0695024.425	0.195473	0.037245	-0.158229	-0.13436	0.20421	-0.069854.43	0.195436	0.037115	-0.158321	-0.134263	0.204241	-0.0699784.435	0.19532	0.036884	-0.158436	-0.134063	0.204241	-0.0701784.44	0.19524	0.03674	-0.1585	-0.133933	0.204231	-0.0702984.445	0.195269	0.037025	-0.158244	-0.134115	0.2041	-0.0699864.45	0.195422	0.037378	-0.158044	-0.134407	0.204073	-0.0696674.455	0.195674	0.037335	-0.15834	-0.134528	0.20439	-0.0698624.46	0.195937	0.037214	-0.158723	-0.13461	0.204763	-0.0701534.465	0.19616	0.037244	-0.158916	-0.134756	0.205003	-0.0702484.47	0.196381	0.037118	-0.159263	-0.134811	0.205331	-0.070524.475	0.196533	0.037063	-0.15947	-0.134866	0.205538	-0.0706724.48	0.1965	0.037298	-0.159202	-0.134983	0.205365	-0.0703814.485	0.196486	0.037448	-0.159038	-0.135062	0.205262	-0.07024.49	0.196657	0.037535	-0.159122	-0.135211	0.205409	-0.0701984.495	0.197171	0.038046	-0.159125	-0.135803	0.205707	-0.0699054.5	0.197926	0.038628	-0.159298	-0.136575	0.206244	-0.0696694.505	0.198468	0.038883	-0.159586	-0.137035	0.206723	-0.0696884.51	0.198456	0.039051	-0.159405	-0.137124	0.206611	-0.0694864.515	0.198015	0.039088	-0.158927	-0.136892	0.206081	-0.0691894.52	0.1975	0.038689	-0.158811	-0.136364	0.205716	-0.0693524.525	0.197046	0.038152	-0.158894	-0.135791	0.205502	-0.0697114.53	0.196693	0.037871	-0.158822	-0.135425	0.205257	-0.0698324.535	0.196571	0.03762	-0.158952	-0.13521	0.205261	-0.0700514.54	0.196655	0.037335	-0.15932	-0.135094	0.205522	-0.0704284.545	0.196802	0.037307	-0.159495	-0.135163	0.205708	-0.0705454.55	0.196924	0.037176	-0.159748	-0.135158	0.205924	-0.0707674.555	0.197011	0.036787	-0.160223	-0.134983	0.206249	-0.0712664.56	0.197016	0.036761	-0.160255	-0.134971	0.206271	-0.07134.565	0.196961	0.037113	-0.159848	-0.135142	0.206004	-0.0708614.57	0.196938	0.037192	-0.159747	-0.135175	0.205932	-0.0707574.575	0.196942	0.037131	-0.159811	-0.135142	0.205972	-0.070834.58	0.196896	0.03732	-0.159576	-0.135225	0.20581	-0.0705854.585	0.196835	0.037459	-0.159376	-0.13527	0.205658	-0.0703884.59	0.196839	0.037325	-0.159514	-0.135195	0.20574	-0.0705454.595	0.196913	0.037168	-0.159745	-0.135147	0.205916	-0.070774.6	0.19706	0.036912	-0.160149	-0.135084	0.206235	-0.0711514.605	0.197237	0.036654	-0.160583	-0.135037	0.206588	-0.0715514.61	0.197379	0.036783	-0.160596	-0.135193	0.206677	-0.0714844.615	0.197454	0.037037	-0.160418	-0.135383	0.206618	-0.0712344.62	0.197495	0.036955	-0.16054	-0.135359	0.206711	-0.0713524.625	0.19743	0.036806	-0.160624	-0.135236	0.206722	-0.0714864.63	0.197238	0.036891	-0.160347	-0.135175	0.206452	-0.0712774.635	0.197092	0.036932	-0.16016	-0.135113	0.206259	-0.0711464.64	0.197166	0.03688	-0.160286	-0.135126	0.206375	-0.0712494.645	0.19735	0.037013	-0.160337	-0.13531	0.206511	-0.0712014.65	0.197492	0.037092	-0.1604	-0.135437	0.206629	-0.0711924.655	0.197561	0.036855	-0.160706	-0.13534	0.206845	-0.0715054.66	0.197531	0.036827	-0.160704	-0.135307	0.206827	-0.071524.665	0.197509	0.037114	-0.160395	-0.13546	0.206636	-0.0711764.67	0.197487	0.037323	-0.160164	-0.135568	0.20649	-0.0709224.675	0.197316	0.037619	-0.159697	-0.13564	0.206121	-0.0704824.68	0.197053	0.037965	-0.159088	-0.135687	0.205618	-0.0699314.685	0.196889	0.037889	-0.159	-0.135549	0.205473	-0.0699244.69	0.196898	0.037374	-0.159524	-0.135256	0.20578	-0.0705234.695	0.196905	0.037014	-0.159892	-0.135053	0.205997	-0.0709434.7	0.196911	0.036833	-0.160078	-0.134952	0.206108	-0.0711564.705	0.196981	0.036565	-0.160416	-0.134838	0.206344	-0.0715064.71	0.197037	0.036509	-0.160528	-0.134838	0.20644	-0.0716024.715	0.197049	0.036724	-0.160326	-0.134969	0.20633	-0.0713624.72	0.197068	0.036874	-0.160194	-0.135067	0.206266	-0.0711994.725	0.197107	0.037073	-0.160035	-0.135204	0.206196	-0.0709924.73	0.19718	0.037418	-0.159762	-0.135445	0.20608	-0.0706354.735	0.1973	0.037489	-0.15981	-0.135555	0.206177	-0.0706224.74	0.197423	0.037252	-0.160171	-0.135489	0.206456	-0.0709674.745	0.197467	0.037253	-0.160214	-0.135516	0.206507	-0.0709924.75	0.197501	0.037317	-0.160184	-0.135572	0.20651	-0.0709374.755	0.197537	0.037219	-0.160317	-0.135537	0.206607	-0.0710714.76	0.197488	0.037376	-0.160112	-0.135599	0.206461	-0.0708614.765	0.197435	0.037677	-0.159759	-0.135742	0.206226	-0.0704844.77	0.19748	0.037705	-0.159776	-0.135784	0.206262	-0.0704784.775	0.19752	0.037702	-0.159818	-0.135806	0.206309	-0.0705044.78	0.197451	0.037835	-0.159616	-0.135843	0.206153	-0.0703114.785	0.197377	0.037716	-0.159662	-0.135731	0.206137	-0.0704054.79	0.197333	0.03753	-0.159803	-0.135598	0.206192	-0.0705944.795	0.197253	0.037722	-0.159531	-0.135662	0.205989	-0.0703274.8	0.197177	0.037916	-0.159261	-0.135731	0.20579	-0.0700594.805	0.19719	0.03764	-0.15955	-0.135579	0.205964	-0.0703854.81	0.197206	0.037299	-0.159907	-0.135391	0.206179	-0.0707884.815	0.197173	0.037262	-0.159912	-0.135351	0.206163	-0.0708124.82	0.197188	0.03729	-0.159898	-0.135376	0.206164	-0.0707874.825	0.197247	0.037493	-0.159754	-0.135527	0.206114	-0.0705874.83	0.197335	0.037944	-0.159391	-0.135839	0.205956	-0.0701174.835	0.197454	0.03804	-0.159414	-0.135963	0.206038	-0.0700764.84	0.1975	0.037697	-0.159804	-0.135791	0.206289	-0.0704994.845	0.197452	0.037587	-0.159864	-0.1357	0.206296	-0.0705974.85	0.197427	0.037679	-0.159748	-0.135739	0.206215	-0.0704774.855	0.197511	0.037636	-0.159875	-0.135762	0.206337	-0.0705744.86	0.197614	0.037719	-0.159895	-0.135869	0.206408	-0.0705394.865	0.197683	0.037961	-0.159722	-0.136049	0.206348	-0.0702984.87	0.197745	0.037864	-0.159881	-0.136029	0.206476	-0.0704464.875	0.19775	0.037581	-0.16017	-0.135868	0.206645	-0.0707774.88	0.197723	0.037582	-0.160141	-0.135853	0.206613	-0.070764.885	0.197745	0.037701	-0.160043	-0.135935	0.206569	-0.0706344.89	0.197794	0.03786	-0.159933	-0.136055	0.206534	-0.0704794.895	0.197742	0.038161	-0.159581	-0.136198	0.2063	-0.0701024.9	0.197601	0.038253	-0.159347	-0.13617	0.206084	-0.0699144.905	0.197487	0.03803	-0.159457	-0.135975	0.206082	-0.0701064.91	0.197402	0.037975	-0.159427	-0.135895	0.206015	-0.070124.915	0.197284	0.038142	-0.159141	-0.135923	0.205782	-0.0698594.92	0.197147	0.0381	-0.159047	-0.13582	0.205648	-0.0698294.925	0.197032	0.038048	-0.158985	-0.135723	0.205546	-0.0698234.93	0.196974	0.038256	-0.158718	-0.135811	0.205359	-0.0695494.935	0.19705	0.038137	-0.158913	-0.135785	0.205515	-0.069734.94	0.197142	0.037635	-0.159508	-0.135548	0.205912	-0.0703634.945	0.197039	0.037329	-0.15971	-0.135312	0.205969	-0.0706574.95	0.196797	0.037154	-0.159644	-0.135072	0.205791	-0.070724.955	0.196592	0.036907	-0.159686	-0.134811	0.205697	-0.0708874.96	0.196496	0.036851	-0.159644	-0.134723	0.205618	-0.0708954.965	0.196493	0.036847	-0.159645	-0.134719	0.205616	-0.0708974.97	0.196633	0.036591	-0.160043	-0.134652	0.205927	-0.0712754.975	0.196823	0.036419	-0.160404	-0.134662	0.206245	-0.0715834.98	0.196869	0.036723	-0.160146	-0.134865	0.206123	-0.0712584.985	0.196846	0.037145	-0.159701	-0.135095	0.205853	-0.0707584.99	0.196883	0.037293	-0.15959	-0.135202	0.20581	-0.0706084.995	0.196907	0.037408	-0.159499	-0.135282	0.205771	-0.070495	0.196917	0.03751	-0.159407	-0.135346	0.205724	-0.0703785.005	0.196948	0.03754	-0.159407	-0.135382	0.205741	-0.070365.01	0.196907	0.037792	-0.159115	-0.135504	0.205549	-0.0700465.015	0.196797	0.03806	-0.158737	-0.135595	0.205268	-0.0696725.02	0.196645	0.037953	-0.158691	-0.135445	0.205153	-0.0697085.025	0.196368	0.037846	-0.158522	-0.135223	0.204896	-0.0696735.03	0.196012	0.038051	-0.157962	-0.135136	0.204367	-0.0692315.035	0.195762	0.038054	-0.157708	-0.134994	0.204076	-0.0690825.04	0.19561	0.037817	-0.157793	-0.134769	0.204037	-0.0692685.045	0.195406	0.0378	-0.157606	-0.134642	0.203812	-0.069175.05	0.195283	0.037767	-0.157516	-0.134551	0.203688	-0.0691375.055	0.195343	0.03756	-0.157783	-0.134467	0.203878	-0.0694115.06	0.195418	0.03758	-0.157838	-0.134522	0.203952	-0.0694315.065	0.195372	0.037686	-0.157686	-0.134556	0.203838	-0.0692825.07	0.195276	0.037567	-0.15771	-0.134432	0.203797	-0.0693655.075	0.195118	0.037492	-0.157626	-0.134297	0.203657	-0.0693595.08	0.194874	0.037589	-0.157285	-0.134213	0.203319	-0.0691075.085	0.194708	0.037451	-0.157258	-0.134037	0.203208	-0.0691715.09	0.19465	0.037051	-0.157599	-0.133772	0.203371	-0.0695985.095	0.19458	0.036911	-0.157669	-0.133651	0.203371	-0.069725.1	0.194551	0.036963	-0.157588	-0.133665	0.203307	-0.0696435.105	0.194623	0.036907	-0.157717	-0.133674	0.203424	-0.069755.11	0.194677	0.037045	-0.157632	-0.133785	0.203405	-0.0696215.115	0.194649	0.037362	-0.157287	-0.133952	0.20319	-0.0692385.12	0.19463	0.037429	-0.157201	-0.133979	0.20313	-0.0691515.125	0.194571	0.037542	-0.157029	-0.134011	0.202996	-0.0689865.13	0.194469	0.037934	-0.156535	-0.134177	0.202652	-0.0684745.135	0.194506	0.038074	-0.156432	-0.13428	0.202614	-0.0683345.14	0.194753	0.037877	-0.156877	-0.134309	0.203014	-0.0687055.145	0.195038	0.037876	-0.157162	-0.134473	0.203343	-0.0688695.15	0.195269	0.037946	-0.157323	-0.134647	0.203569	-0.0689225.155	0.195442	0.037621	-0.157822	-0.134559	0.203957	-0.0693985.16	0.195419	0.037261	-0.158159	-0.134338	0.204138	-0.0698015.165	0.195143	0.037013	-0.158129	-0.134035	0.203961	-0.0699265.17	0.194803	0.036722	-0.158081	-0.133671	0.203737	-0.0700675.175	0.194533	0.036711	-0.157822	-0.133508	0.203432	-0.0699245.18	0.194381	0.037005	-0.157376	-0.13359	0.203087	-0.0694975.185	0.194411	0.037088	-0.157323	-0.133656	0.203074	-0.0694185.19	0.194505	0.036998	-0.157507	-0.133658	0.203234	-0.0695765.195	0.194477	0.037045	-0.157432	-0.13367	0.203175	-0.0695065.2	0.194334	0.036971	-0.157363	-0.133544	0.203052	-0.0695085.205	0.194183	0.036538	-0.157645	-0.133206	0.203128	-0.0699215.21	0.193975	0.036252	-0.157723	-0.132922	0.203053	-0.0701315.215	0.193652	0.036325	-0.157327	-0.132777	0.202638	-0.0698615.22	0.193354	0.036247	-0.157107	-0.13256	0.202339	-0.0697795.225	0.19311	0.036219	-0.156891	-0.132403	0.202073	-0.069675.23	0.192924	0.036441	-0.156483	-0.132424	0.20173	-0.0693065.235	0.192912	0.036483	-0.156429	-0.132441	0.201692	-0.0692515.24	0.192999	0.036491	-0.156508	-0.132496	0.201787	-0.0692925.245	0.192965	0.036794	-0.156171	-0.132651	0.201573	-0.0689225.25	0.192811	0.037032	-0.155779	-0.1327	0.201258	-0.0685585.255	0.192658	0.036811	-0.155846	-0.132484	0.201209	-0.0687255.26	0.192537	0.036485	-0.156052	-0.132226	0.201258	-0.0690325.265	0.192471	0.036334	-0.156137	-0.1321	0.201269	-0.0691685.27	0.192516	0.036028	-0.156487	-0.13195	0.201497	-0.0695475.275	0.192595	0.035634	-0.156961	-0.131768	0.201816	-0.0700495.28	0.192612	0.035599	-0.157013	-0.131757	0.201856	-0.0700985.285	0.192592	0.03579	-0.156801	-0.131856	0.201722	-0.0698665.29	0.192477	0.036187	-0.15629	-0.132019	0.20136	-0.0693415.295	0.192252	0.036746	-0.155506	-0.132212	0.200778	-0.0685665.3	0.19207	0.036916	-0.155154	-0.132205	0.200469	-0.0682645.305	0.192006	0.036625	-0.155381	-0.132	0.200564	-0.0685645.31	0.191938	0.036564	-0.155374	-0.131925	0.20052	-0.0685955.315	0.191899	0.036764	-0.155135	-0.132019	0.200361	-0.0683425.32	0.191979	0.036694	-0.155285	-0.132024	0.200492	-0.0684695.325	0.192123	0.036536	-0.155587	-0.132016	0.200751	-0.0687345.33	0.192201	0.036611	-0.15559	-0.132105	0.200797	-0.0686925.335	0.192208	0.036588	-0.155619	-0.132095	0.200818	-0.0687235.34	0.192117	0.03642	-0.155697	-0.131946	0.200811	-0.0688655.345	0.191875	0.036485	-0.15539	-0.131844	0.200494	-0.068655.35	0.191644	0.036532	-0.155112	-0.131737	0.2002	-0.0684625.355	0.191485	0.036353	-0.155132	-0.131542	0.20012	-0.0685775.36	0.191252	0.036273	-0.154979	-0.131361	0.199896	-0.0685355.365	0.190952	0.036223	-0.154729	-0.131159	0.199579	-0.0684195.37	0.190768	0.035843	-0.154925	-0.130834	0.199586	-0.0687525.375	0.190645	0.035386	-0.155259	-0.130499	0.199707	-0.0692095.38	0.190473	0.035292	-0.155182	-0.130345	0.199564	-0.0692185.385	0.190309	0.035308	-0.155001	-0.13026	0.199365	-0.0691055.39	0.190194	0.035297	-0.154897	-0.130187	0.199239	-0.0690515.395	0.19016	0.035642	-0.154518	-0.130367	0.198999	-0.0686335.4	0.190186	0.036083	-0.154103	-0.130637	0.198776	-0.0681395.405	0.190187	0.036159	-0.154028	-0.130681	0.198732	-0.0680515.41	0.190066	0.036208	-0.153858	-0.130639	0.198565	-0.0679265.415	0.189842	0.036153	-0.153689	-0.130478	0.198337	-0.0678595.42	0.189618	0.035738	-0.15388	-0.130109	0.198318	-0.0682095.425	0.189392	0.035347	-0.154046	-0.129753	0.198284	-0.0685315.43	0.189183	0.035334	-0.153849	-0.129625	0.19805	-0.0684245.435	0.18913	0.035424	-0.153706	-0.129647	0.197937	-0.068295.44	0.189236	0.035444	-0.153792	-0.129719	0.198047	-0.0683285.445	0.189333	0.035659	-0.153674	-0.1299	0.198035	-0.0681365.45	0.189328	0.035903	-0.153424	-0.130037	0.197888	-0.0678515.455	0.189278	0.035892	-0.153387	-0.130002	0.197838	-0.0678365.46	0.189125	0.035908	-0.153217	-0.129923	0.197651	-0.0677285.465	0.188959	0.035859	-0.153099	-0.129799	0.197487	-0.0676895.47	0.188908	0.03558	-0.153328	-0.129608	0.19759	-0.0679825.475	0.188856	0.035517	-0.153339	-0.129542	0.197567	-0.0680255.48	0.188687	0.035778	-0.152908	-0.129595	0.19722	-0.0676255.485	0.188523	0.03588	-0.152643	-0.129559	0.196972	-0.0674135.49	0.1885	0.03587	-0.15263	-0.12954	0.196951	-0.0674115.495	0.188467	0.036149	-0.152318	-0.129682	0.196752	-0.067075.5	0.188353	0.036383	-0.15197	-0.129751	0.196485	-0.0667345.505	0.188252	0.036242	-0.15201	-0.129612	0.19645	-0.0668385.51	0.188127	0.036119	-0.152008	-0.129469	0.196377	-0.0669095.515	0.188002	0.036126	-0.151876	-0.1294	0.196229	-0.0668295.52	0.187926	0.035967	-0.151958	-0.129265	0.196232	-0.0669685.525	0.187701	0.035891	-0.151811	-0.129091	0.196017	-0.0669265.53	0.187299	0.036153	-0.151145	-0.12901	0.195401	-0.0663915.535	0.18695	0.036335	-0.150616	-0.128914	0.194894	-0.065985.54	0.186761	0.036263	-0.150498	-0.128763	0.194716	-0.0659535.545	0.186654	0.036387	-0.150267	-0.128773	0.194521	-0.0657485.55	0.186592	0.036625	-0.149968	-0.128874	0.194313	-0.0654395.555	0.186554	0.036483	-0.150071	-0.12877	0.194351	-0.065585.56	0.186438	0.03623	-0.150208	-0.128557	0.194363	-0.0658065.565	0.186275	0.036141	-0.150134	-0.128412	0.194225	-0.0658145.57	0.186222	0.036059	-0.150163	-0.128334	0.194212	-0.0658785.575	0.186238	0.036195	-0.150043	-0.128422	0.194151	-0.065735.58	0.186241	0.036501	-0.14974	-0.1286	0.193978	-0.0653785.585	0.186265	0.036479	-0.149786	-0.128601	0.194019	-0.0654185.59	0.186247	0.036223	-0.150024	-0.128443	0.194146	-0.0657035.595	0.186068	0.036105	-0.149963	-0.128272	0.194007	-0.0657365.6	0.185823	0.035787	-0.150036	-0.127947	0.193908	-0.0659615.605	0.185665	0.035156	-0.15051	-0.127491	0.194091	-0.0665995.61	0.185504	0.034692	-0.150812	-0.12713	0.194172	-0.0670415.615	0.185264	0.034383	-0.150881	-0.126813	0.194073	-0.067265.62	0.18503	0.034017	-0.151013	-0.126466	0.194014	-0.0675485.625	0.184789	0.033964	-0.150825	-0.126297	0.193767	-0.067475.63	0.184559	0.034332	-0.150226	-0.126377	0.193288	-0.0669115.635	0.184387	0.034583	-0.149804	-0.126422	0.192945	-0.0665225.64	0.184254	0.034706	-0.149548	-0.126416	0.19272	-0.0663045.645	0.184115	0.035006	-0.149109	-0.126509	0.192387	-0.0658775.65	0.183988	0.035147	-0.148841	-0.126518	0.192159	-0.0656415.655	0.183998	0.034849	-0.149149	-0.126352	0.192343	-0.0659915.66	0.184138	0.034622	-0.149516	-0.126301	0.192635	-0.0663345.665	0.184292	0.034746	-0.149546	-0.126462	0.192742	-0.066285.67	0.18446	0.034701	-0.149759	-0.126533	0.192961	-0.0664295.675	0.184527	0.034496	-0.150031	-0.126453	0.193157	-0.0667045.68	0.184459	0.034568	-0.149892	-0.126455	0.193038	-0.0665825.685	0.18441	0.034592	-0.149817	-0.126441	0.192966	-0.0665255.69	0.184359	0.034451	-0.149908	-0.12633	0.192989	-0.0666595.695	0.184226	0.034438	-0.149788	-0.126245	0.192843	-0.0665985.7	0.184088	0.034226	-0.149862	-0.126043	0.192806	-0.0667635.705	0.183964	0.033823	-0.150141	-0.125739	0.192895	-0.0671565.71	0.18374	0.033875	-0.149865	-0.12564	0.192606	-0.0669675.715	0.183398	0.034371	-0.149027	-0.125729	0.191926	-0.0661975.72	0.183103	0.034618	-0.148485	-0.125701	0.191442	-0.0657415.725	0.182894	0.034559	-0.148335	-0.125547	0.191235	-0.0656885.73	0.182747	0.034564	-0.148183	-0.125464	0.191063	-0.0655985.735	0.182742	0.034499	-0.148243	-0.125424	0.191094	-0.065675.74	0.182768	0.034459	-0.148308	-0.125416	0.191147	-0.0657315.745	0.182683	0.034618	-0.148065	-0.125459	0.190958	-0.0654995.75	0.182496	0.034617	-0.147879	-0.12535	0.190742	-0.0653925.755	0.182205	0.034381	-0.147824	-0.125046	0.190542	-0.0654965.76	0.181735	0.034367	-0.147368	-0.124767	0.190008	-0.0652415.765	0.181192	0.034471	-0.146721	-0.124513	0.189321	-0.0648085.77	0.180782	0.034419	-0.146363	-0.124246	0.188877	-0.0646315.775	0.180493	0.034577	-0.145917	-0.124171	0.188453	-0.0642825.78	0.180264	0.035021	-0.145243	-0.124295	0.187932	-0.0636375.785	0.180191	0.035117	-0.145074	-0.124308	0.187792	-0.0634835.79	0.180254	0.034847	-0.145407	-0.124189	0.18802	-0.0638325.795	0.180338	0.034807	-0.14553	-0.124214	0.18814	-0.0639265.8	0.180386	0.034886	-0.145499	-0.124287	0.18815	-0.0638625.805	0.180344	0.034744	-0.1456	-0.124181	0.188184	-0.0640025.81	0.180163	0.034675	-0.145488	-0.124037	0.188015	-0.0639785.815	0.179949	0.034704	-0.145245	-0.12393	0.187751	-0.0638215.82	0.179883	0.034495	-0.145388	-0.123771	0.187795	-0.0640245.825	0.179941	0.034301	-0.14564	-0.123692	0.187974	-0.0642815.83	0.179954	0.034493	-0.14546	-0.123811	0.187878	-0.0640675.835	0.179931	0.034691	-0.14524	-0.123913	0.187738	-0.0638255.84	0.179931	0.034612	-0.145319	-0.123866	0.187783	-0.0639175.845	0.179874	0.034597	-0.145277	-0.123824	0.187726	-0.0639015.85	0.179719	0.034609	-0.145111	-0.123742	0.18754	-0.0637985.855	0.179534	0.034399	-0.145135	-0.123514	0.187448	-0.0639335.86	0.179354	0.034331	-0.145023	-0.123371	0.187279	-0.0639085.865	0.179255	0.034519	-0.144735	-0.123422	0.187056	-0.0636335.87	0.17918	0.034538	-0.144643	-0.12339	0.186959	-0.0635695.875	0.179028	0.034641	-0.144387	-0.123361	0.186724	-0.0633625.88	0.178805	0.034878	-0.143926	-0.12337	0.186329	-0.0629595.885	0.178645	0.03474	-0.143905	-0.123198	0.186224	-0.0630265.89	0.178565	0.034304	-0.144261	-0.1229	0.186384	-0.0634845.895	0.178506	0.034077	-0.144428	-0.122735	0.186446	-0.0637115.9	0.178485	0.034059	-0.144426	-0.122712	0.186433	-0.0637215.905	0.178501	0.033789	-0.144712	-0.122566	0.186607	-0.0640415.91	0.178383	0.033532	-0.144851	-0.122349	0.186619	-0.064275.915	0.178103	0.03343	-0.144673	-0.122128	0.186355	-0.0642265.92	0.177744	0.033254	-0.14449	-0.12182	0.186042	-0.0642225.925	0.177422	0.033244	-0.144179	-0.121628	0.185677	-0.0640495.93	0.177256	0.033418	-0.143838	-0.121632	0.185383	-0.0637515.935	0.177252	0.033417	-0.143835	-0.12163	0.18538	-0.063755.94	0.177322	0.033357	-0.143965	-0.121635	0.185495	-0.0638595.945	0.177273	0.033504	-0.143769	-0.121692	0.185353	-0.0636625.95	0.177104	0.033526	-0.143578	-0.121607	0.185146	-0.0635395.955	0.176971	0.033172	-0.143799	-0.121326	0.185197	-0.0638715.96	0.176811	0.032963	-0.143848	-0.121113	0.185132	-0.0640195.965	0.176559	0.033093	-0.143466	-0.121042	0.184766	-0.0637245.97	0.176254	0.033089	-0.143165	-0.120864	0.184417	-0.0635535.975	0.175904	0.033193	-0.142711	-0.120722	0.183952	-0.063235.98	0.175555	0.033696	-0.141859	-0.120812	0.183259	-0.0624485.985	0.17531	0.034147	-0.141163	-0.12093	0.182716	-0.0617865.99	0.175113	0.034433	-0.140681	-0.120982	0.182324	-0.0613425.995	0.174867	0.034756	-0.140111	-0.121025	0.181852	-0.0608276	0.174654	0.034824	-0.13983	-0.120942	0.181567	-0.0606256.005	0.174505	0.03439	-0.140115	-0.120605	0.181646	-0.061046.01	0.174336	0.033923	-0.140413	-0.120238	0.181721	-0.0614826.015	0.17414	0.033725	-0.140415	-0.120011	0.181608	-0.0615976.02	0.173976	0.033424	-0.140552	-0.119742	0.181593	-0.061856.025	0.17383	0.033128	-0.140702	-0.119487	0.181595	-0.0621086.03	0.173648	0.033207	-0.14044	-0.119428	0.181339	-0.0619116.035	0.17349	0.033398	-0.140092	-0.119447	0.181047	-0.06166.04	0.173344	0.033605	-0.139739	-0.119482	0.180758	-0.0612766.045	0.173131	0.033908	-0.139223	-0.119534	0.180337	-0.0608046.05	0.172949	0.033879	-0.13907	-0.119412	0.180144	-0.0607326.055	0.172831	0.033592	-0.13924	-0.119178	0.180174	-0.0609966.06	0.172661	0.033634	-0.139028	-0.119105	0.179954	-0.0608496.065	0.172471	0.033802	-0.138669	-0.119092	0.179637	-0.0605456.07	0.172414	0.033612	-0.138802	-0.118949	0.179681	-0.0607316.075	0.172445	0.033409	-0.139036	-0.11885	0.179834	-0.0609846.08	0.172409	0.033473	-0.138936	-0.118866	0.179755	-0.0608896.085	0.172328	0.033435	-0.138893	-0.118797	0.179683	-0.0608866.09	0.172192	0.033299	-0.138893	-0.118641	0.179605	-0.0609646.095	0.171957	0.033344	-0.138613	-0.11853	0.179308	-0.0607776.1	0.171656	0.033329	-0.138328	-0.118348	0.178969	-0.0606216.105	0.171352	0.033167	-0.138184	-0.118079	0.178711	-0.0606326.11	0.170976	0.03323	-0.137746	-0.117898	0.17824	-0.0603426.115	0.170534	0.033396	-0.137138	-0.117739	0.177635	-0.0598966.12	0.170257	0.03316	-0.137096	-0.117443	0.17745	-0.0600076.125	0.170168	0.032759	-0.137409	-0.11716	0.177579	-0.0604196.13	0.170146	0.032645	-0.137501	-0.117081	0.17762	-0.0605396.135	0.170125	0.032533	-0.137592	-0.117004	0.17766	-0.0606566.14	0.17007	0.032296	-0.137774	-0.116836	0.177734	-0.0608986.145	0.169882	0.032376	-0.137506	-0.116773	0.17747	-0.0606976.15	0.169679	0.032526	-0.137152	-0.116743	0.177149	-0.0604066.155	0.169767	0.032256	-0.137511	-0.116638	0.177407	-0.0607696.16	0.17032	0.032265	-0.138056	-0.116963	0.178041	-0.0610786.165	0.170965	0.032577	-0.138387	-0.117515	0.178605	-0.0610896.17	0.171204	0.032652	-0.138552	-0.117696	0.178838	-0.0611416.175	0.170786	0.032631	-0.138156	-0.117443	0.178368	-0.0609256.18	0.169867	0.032724	-0.137143	-0.116966	0.177253	-0.0602876.185	0.168928	0.032588	-0.13634	-0.116345	0.176247	-0.0599026.19	0.168259	0.032252	-0.136007	-0.115765	0.175668	-0.0599036.195	0.167874	0.032193	-0.135681	-0.115509	0.175258	-0.0597496.2	0.167723	0.03224	-0.135483	-0.115448	0.175056	-0.0596086.205	0.167695	0.032147	-0.135548	-0.115379	0.175078	-0.0596986.21	0.167653	0.032219	-0.135434	-0.115396	0.174987	-0.0595916.215	0.167617	0.032365	-0.135252	-0.115459	0.174861	-0.0594026.22	0.167642	0.032323	-0.135318	-0.11545	0.174914	-0.0594646.225	0.16762	0.032352	-0.135268	-0.115453	0.174872	-0.0594196.23	0.167488	0.032405	-0.135082	-0.115408	0.174689	-0.0592816.235	0.167317	0.032025	-0.135292	-0.11509	0.174711	-0.0596216.24	0.167121	0.031452	-0.135668	-0.114646	0.174815	-0.0601696.245	0.166811	0.031404	-0.135406	-0.11444	0.174485	-0.0600466.25	0.16648	0.031622	-0.134858	-0.114374	0.173977	-0.0596036.255	0.166255	0.031546	-0.134709	-0.114201	0.173762	-0.0595616.26	0.166066	0.031528	-0.134538	-0.114081	0.173554	-0.0594726.265	0.165858	0.031843	-0.134015	-0.114143	0.173132	-0.0589896.27	0.165817	0.032134	-0.133683	-0.114287	0.172916	-0.0586296.275	0.165888	0.032415	-0.133473	-0.11449	0.172837	-0.0583466.28	0.165796	0.032698	-0.133098	-0.114601	0.172567	-0.0579666.285	0.165549	0.032561	-0.132988	-0.114379	0.17236	-0.0579816.29	0.165255	0.032125	-0.13313	-0.113957	0.172273	-0.0583166.295	0.164902	0.031926	-0.132975	-0.113639	0.171979	-0.0583416.3	0.164482	0.031861	-0.132621	-0.113358	0.171533	-0.0581746.305	0.164076	0.03155	-0.132527	-0.112944	0.171244	-0.0582996.31	0.163699	0.031347	-0.132353	-0.11261	0.170926	-0.0583166.315	0.163435	0.031473	-0.131962	-0.11253	0.170547	-0.0580186.32	0.163452	0.031504	-0.131948	-0.112558	0.170549	-0.0579916.325	0.163609	0.031496	-0.132113	-0.112644	0.170735	-0.0580916.33	0.163707	0.031612	-0.132095	-0.112768	0.170782	-0.0580146.335	0.163758	0.031534	-0.132224	-0.112751	0.170885	-0.0581336.34	0.163701	0.031381	-0.13232	-0.112631	0.170908	-0.0582786.345	0.163537	0.031544	-0.131994	-0.11263	0.170625	-0.0579956.35	0.163354	0.03168	-0.131674	-0.112603	0.170334	-0.0577326.355	0.163123	0.03152	-0.131604	-0.112377	0.170161	-0.0577846.36	0.16283	0.031385	-0.131445	-0.11213	0.1699	-0.057776.365	0.162577	0.031146	-0.131431	-0.111846	0.169746	-0.05796.37	0.162459	0.030637	-0.131821	-0.111484	0.169903	-0.0584196.375	0.162337	0.030352	-0.131986	-0.111249	0.169927	-0.0586786.38	0.162135	0.030516	-0.131619	-0.111227	0.169598	-0.0583726.385	0.161877	0.030679	-0.131198	-0.111172	0.169207	-0.0580356.39	0.161513	0.030817	-0.130696	-0.111041	0.168707	-0.0576656.395	0.161127	0.031147	-0.12998	-0.111009	0.168071	-0.0570626.4	0.160881	0.031332	-0.129548	-0.110974	0.167679	-0.0567056.405	0.160744	0.031206	-0.129538	-0.110823	0.167595	-0.0567726.41	0.160564	0.031225	-0.129339	-0.110729	0.167375	-0.0566466.415	0.160345	0.031526	-0.128819	-0.110777	0.166949	-0.0561726.42	0.160184	0.031583	-0.128601	-0.110716	0.16673	-0.0560136.425	0.160064	0.031466	-0.128599	-0.11058	0.166659	-0.056086.43	0.159901	0.031508	-0.128394	-0.11051	0.166447	-0.0559376.435	0.159754	0.031399	-0.128355	-0.110362	0.166339	-0.0559776.44	0.159659	0.031166	-0.128492	-0.110173	0.166364	-0.0561916.445	0.159558	0.031308	-0.128251	-0.110197	0.166166	-0.055976.45	0.159482	0.031664	-0.127818	-0.110358	0.165873	-0.0555156.455	0.159421	0.03185	-0.127571	-0.110431	0.165695	-0.0552646.46	0.159316	0.032048	-0.127268	-0.110484	0.16546	-0.0549766.465	0.159212	0.032165	-0.127047	-0.110492	0.165272	-0.054786.47	0.159176	0.031911	-0.127265	-0.110324	0.165377	-0.0550536.475	0.159125	0.03161	-0.127515	-0.110121	0.165492	-0.0553716.48	0.158901	0.031617	-0.127284	-0.109996	0.165229	-0.0552336.485	0.158584	0.031512	-0.127072	-0.109752	0.164923	-0.0551716.49	0.158293	0.031116	-0.127177	-0.109355	0.164816	-0.0554616.495	0.158061	0.030811	-0.12725	-0.109045	0.164724	-0.0556796.5	0.157905	0.030456	-0.12745	-0.10875	0.16475	-0.0559996.505	0.15775	0.030068	-0.127682	-0.108437	0.164794	-0.0563576.51	0.157515	0.030045	-0.12747	-0.108288	0.164536	-0.0562486.515	0.15726	0.030105	-0.127155	-0.108175	0.164207	-0.0560326.52	0.157026	0.029847	-0.127179	-0.107891	0.164085	-0.0561946.525	0.156723	0.0297	-0.127023	-0.107631	0.163821	-0.056196.53	0.156353	0.029873	-0.12648	-0.107517	0.163293	-0.0557766.535	0.156042	0.029891	-0.126151	-0.107348	0.162924	-0.0555766.54	0.155835	0.029914	-0.125921	-0.107242	0.162672	-0.055436.545	0.155597	0.030353	-0.125244	-0.107358	0.162143	-0.0547866.55	0.155316	0.030815	-0.124501	-0.107463	0.161553	-0.054096.555	0.15516	0.030874	-0.124286	-0.107407	0.161338	-0.0539316.56	0.155156	0.030825	-0.124331	-0.107376	0.161362	-0.0539856.565	0.155191	0.030745	-0.124446	-0.10735	0.161448	-0.0540996.57	0.155173	0.030412	-0.12476	-0.107147	0.161619	-0.0544726.575	0.154968	0.030151	-0.124817	-0.106879	0.161534	-0.0546556.58	0.154574	0.030139	-0.124435	-0.106644	0.161086	-0.0544426.585	0.154198	0.029951	-0.124247	-0.106318	0.16076	-0.0544426.59	0.153926	0.029586	-0.12434	-0.10595	0.160656	-0.0547066.595	0.153649	0.02957	-0.124079	-0.105782	0.160347	-0.0545656.6	0.153364	0.029775	-0.12359	-0.105735	0.159899	-0.0541646.605	0.153155	0.029726	-0.123429	-0.105587	0.159686	-0.05416.61	0.153007	0.029765	-0.123242	-0.105524	0.159493	-0.0539696.615	0.152939	0.03005	-0.122889	-0.105649	0.159249	-0.0536016.62	0.15301	0.03022	-0.12279	-0.105787	0.159233	-0.0534466.625	0.153073	0.030523	-0.12255	-0.105999	0.159131	-0.0531326.63	0.152997	0.030883	-0.122113	-0.106163	0.158835	-0.0526726.635	0.152819	0.03083	-0.121989	-0.10603	0.15866	-0.0526316.64	0.152585	0.030584	-0.122002	-0.105753	0.158533	-0.052786.645	0.152252	0.030521	-0.121731	-0.105524	0.158184	-0.052666.65	0.151913	0.030356	-0.121557	-0.105233	0.157888	-0.0526556.655	0.151638	0.029915	-0.121723	-0.10482	0.157825	-0.0530066.66	0.151337	0.029694	-0.121643	-0.104518	0.157605	-0.0530876.665	0.151058	0.029765	-0.121293	-0.104398	0.157241	-0.0528446.67	0.150927	0.029718	-0.121209	-0.104295	0.157118	-0.0528226.675	0.150867	0.029664	-0.121203	-0.104229	0.15708	-0.052856.68	0.150772	0.029739	-0.121033	-0.104218	0.156927	-0.0527086.685	0.15067	0.029618	-0.121052	-0.104089	0.156879	-0.052796.69	0.150527	0.029402	-0.121125	-0.103882	0.156839	-0.0529566.695	0.150286	0.029371	-0.120915	-0.103725	0.156578	-0.0528536.7	0.150035	0.02929	-0.120745	-0.103533	0.156334	-0.0528016.705	0.149886	0.028961	-0.120925	-0.103257	0.156353	-0.0530966.71	0.149804	0.028743	-0.121061	-0.103084	0.156384	-0.05336.715	0.149752	0.028653	-0.121099	-0.103002	0.156376	-0.0533746.72	0.1498	0.028324	-0.121477	-0.10284	0.156622	-0.0537826.725	0.14985	0.028035	-0.121815	-0.102702	0.156846	-0.0541446.73	0.149726	0.028182	-0.121544	-0.102715	0.156618	-0.0539036.735	0.149442	0.028334	-0.121108	-0.102639	0.156202	-0.0535636.74	0.148994	0.028217	-0.120777	-0.102313	0.155752	-0.0534396.745	0.14841	0.02806	-0.12035	-0.101885	0.155169	-0.0532836.75	0.147892	0.027777	-0.120115	-0.101422	0.154734	-0.0533126.755	0.147565	0.027389	-0.120175	-0.10101	0.15458	-0.053576.76	0.147326	0.027381	-0.119945	-0.100867	0.154309	-0.0534426.765	0.14708	0.027757	-0.119323	-0.100942	0.153808	-0.0528666.77	0.146939	0.027959	-0.11898	-0.100978	0.153528	-0.0525516.775	0.146894	0.028025	-0.118869	-0.10099	0.153439	-0.0524496.78	0.146829	0.0283	-0.118528	-0.101111	0.153204	-0.0520936.785	0.146759	0.028394	-0.118364	-0.101125	0.153069	-0.0519446.79	0.146661	0.028107	-0.118554	-0.100902	0.153122	-0.0522196.795	0.146439	0.027854	-0.118585	-0.100628	0.153012	-0.0523836.8	0.146143	0.027518	-0.118625	-0.100263	0.152864	-0.0526016.805	0.145801	0.027071	-0.11873	-0.099808	0.152727	-0.052926.81	0.145396	0.026999	-0.118397	-0.099532	0.152301	-0.0527696.815	0.145046	0.027096	-0.11795	-0.099386	0.15184	-0.0524546.82	0.144876	0.026964	-0.117912	-0.099212	0.15172	-0.0525096.825	0.144813	0.026916	-0.117897	-0.099148	0.151676	-0.0525286.83	0.14472	0.026968	-0.117751	-0.099124	0.151538	-0.0524146.835	0.144632	0.026712	-0.11792	-0.098925	0.151584	-0.0526596.84	0.144533	0.026404	-0.118129	-0.09869	0.151648	-0.0529576.845	0.144335	0.026587	-0.117748	-0.098682	0.151314	-0.0526326.85	0.144069	0.026924	-0.117145	-0.098723	0.150812	-0.0520896.855	0.143784	0.027089	-0.116695	-0.098654	0.150388	-0.0517346.86	0.143464	0.027323	-0.116141	-0.098604	0.149882	-0.0512796.865	0.14314	0.027529	-0.115611	-0.098536	0.14939	-0.0508546.87	0.142893	0.027458	-0.115435	-0.098353	0.149146	-0.0507936.875	0.142759	0.027559	-0.1152	-0.098333	0.148932	-0.05066.88	0.142634	0.027974	-0.11466	-0.098501	0.148549	-0.0500486.885	0.142516	0.028108	-0.114408	-0.09851	0.148335	-0.0498266.89	0.142349	0.027725	-0.114623	-0.098192	0.148363	-0.050176.895	0.142068	0.027365	-0.114702	-0.097822	0.148246	-0.0504246.9	0.141801	0.027039	-0.114762	-0.09748	0.148127	-0.0506476.905	0.141661	0.026565	-0.115096	-0.097125	0.148239	-0.0511146.91	0.141527	0.02636	-0.115167	-0.09693	0.148203	-0.0512736.915	0.14135	0.026526	-0.114824	-0.096923	0.147902	-0.0509796.92	0.141162	0.026697	-0.114465	-0.096914	0.147587	-0.0506736.925	0.140893	0.026929	-0.113964	-0.096892	0.147142	-0.050256.93	0.140577	0.027185	-0.113392	-0.096857	0.146628	-0.0497716.935	0.140409	0.027034	-0.113375	-0.096674	0.146522	-0.0498496.94	0.140426	0.026578	-0.113848	-0.09642	0.146805	-0.0503856.945	0.140368	0.026393	-0.113976	-0.09628	0.146846	-0.0505666.95	0.14019	0.026408	-0.113782	-0.096185	0.146631	-0.0504466.955	0.140043	0.026461	-0.113582	-0.096131	0.14643	-0.0502996.96	0.139915	0.02683	-0.113085	-0.09627	0.146069	-0.0497996.965	0.13979	0.027303	-0.112486	-0.096471	0.145652	-0.0491816.97	0.139675	0.027501	-0.112174	-0.096519	0.145405	-0.0488866.975	0.139483	0.027598	-0.111885	-0.096464	0.145127	-0.0486636.98	0.139191	0.02763	-0.111561	-0.096314	0.144771	-0.0484586.985	0.138904	0.027324	-0.11158	-0.095972	0.144617	-0.0486456.99	0.138775	0.027054	-0.111721	-0.095741	0.144624	-0.0488836.995	0.138704	0.027218	-0.111486	-0.095796	0.144447	-0.0486527	0.138595	0.027293	-0.111301	-0.095775	0.144277	-0.0485027.005	0.138462	0.026932	-0.11153	-0.09549	0.144333	-0.0488437.01	0.138207	0.026668	-0.111539	-0.095191	0.144191	-0.0490017.015	0.137828	0.026738	-0.11109	-0.095012	0.143713	-0.0487017.02	0.137479	0.026619	-0.11086	-0.094742	0.143378	-0.0486377.025	0.137161	0.026387	-0.110774	-0.094424	0.143145	-0.0487217.03	0.136844	0.026254	-0.11059	-0.094165	0.142856	-0.0486917.035	0.136538	0.025868	-0.110671	-0.093765	0.142726	-0.0489617.04	0.136174	0.025492	-0.110682	-0.093338	0.142522	-0.0491847.045	0.135721	0.025562	-0.110159	-0.093116	0.141958	-0.0488427.05	0.135323	0.025665	-0.109658	-0.092947	0.14144	-0.0484937.055	0.135071	0.025496	-0.109575	-0.092704	0.141247	-0.0485437.06	0.134883	0.025612	-0.109272	-0.092662	0.140963	-0.0483017.065	0.134724	0.025961	-0.108763	-0.092771	0.140577	-0.0478067.07	0.134659	0.025901	-0.108758	-0.092699	0.140537	-0.0478387.075	0.134567	0.025751	-0.108816	-0.09256	0.140517	-0.0479577.08	0.134359	0.025928	-0.108431	-0.092542	0.140174	-0.0476337.085	0.13418	0.025886	-0.108294	-0.092415	0.139993	-0.0475787.09	0.134011	0.025577	-0.108434	-0.092138	0.139976	-0.0478377.095	0.133777	0.025634	-0.108143	-0.092036	0.139672	-0.0476367.1	0.133609	0.025824	-0.107785	-0.092049	0.139369	-0.047327.105	0.133551	0.025894	-0.107657	-0.092056	0.139262	-0.0472067.11	0.133441	0.026055	-0.107386	-0.092085	0.139042	-0.0469567.115	0.133233	0.026079	-0.107154	-0.091979	0.138787	-0.0468087.12	0.133036	0.025695	-0.107341	-0.091643	0.138782	-0.0471397.125	0.132808	0.025334	-0.107474	-0.091304	0.138727	-0.0474237.13	0.132496	0.025413	-0.107083	-0.091169	0.138321	-0.0471527.135	0.132186	0.025566	-0.10662	-0.091078	0.137875	-0.0467977.14	0.131913	0.025677	-0.106235	-0.090985	0.137495	-0.046517.145	0.131697	0.025907	-0.10579	-0.090992	0.137113	-0.0461217.15	0.131609	0.025924	-0.105686	-0.090952	0.137002	-0.046057.155	0.131584	0.025612	-0.105972	-0.090757	0.137153	-0.0463967.16	0.131398	0.025444	-0.105953	-0.090553	0.137035	-0.0464827.165	0.131049	0.025435	-0.105614	-0.090346	0.136637	-0.0462917.17	0.130773	0.025203	-0.105569	-0.090053	0.136452	-0.0463997.175	0.1306	0.025047	-0.105554	-0.089863	0.136343	-0.0464817.18	0.130467	0.025203	-0.105264	-0.089876	0.136099	-0.0462237.185	0.130406	0.025149	-0.105257	-0.08981	0.13606	-0.0462517.19	0.130347	0.024859	-0.105488	-0.089609	0.13616	-0.0465517.195	0.130185	0.024986	-0.105199	-0.089588	0.135898	-0.0463117.2	0.12996	0.025447	-0.104513	-0.089724	0.135373	-0.0456497.205	0.129703	0.025547	-0.104156	-0.089634	0.135018	-0.0453857.21	0.129426	0.025437	-0.103989	-0.08941	0.134762	-0.0453527.215	0.129166	0.025108	-0.104057	-0.08907	0.134651	-0.0455817.22	0.128966	0.024504	-0.104462	-0.088606	0.13477	-0.0461647.225	0.128754	0.024147	-0.104608	-0.088277	0.134732	-0.0464547.23	0.128505	0.024195	-0.10431	-0.088161	0.134416	-0.0462557.235	0.128318	0.024146	-0.104172	-0.088025	0.134229	-0.0462037.24	0.128178	0.023931	-0.104247	-0.08782	0.13419	-0.0463717.245	0.128032	0.023884	-0.104148	-0.087709	0.134049	-0.046347.25	0.12789	0.023816	-0.104074	-0.087588	0.133924	-0.0463377.255	0.12778	0.023683	-0.104096	-0.087447	0.133874	-0.0464277.26	0.12763	0.023823	-0.103807	-0.087441	0.13362	-0.0461797.265	0.127401	0.024082	-0.103319	-0.087459	0.133206	-0.0457477.27	0.127124	0.024049	-0.103075	-0.08728	0.132905	-0.0456267.275	0.126707	0.024044	-0.102663	-0.087036	0.132427	-0.0453917.28	0.126185	0.024225	-0.10196	-0.086839	0.131719	-0.044887.285	0.125784	0.024044	-0.10174	-0.086503	0.131361	-0.0448587.29	0.12558	0.023572	-0.102008	-0.086113	0.131398	-0.0452857.295	0.125458	0.023437	-0.102021	-0.085964	0.131335	-0.045377.3	0.125416	0.023542	-0.101874	-0.086001	0.131226	-0.0452257.305	0.125423	0.023504	-0.101919	-0.085983	0.131256	-0.0452737.31	0.125313	0.023523	-0.10179	-0.085931	0.131118	-0.0451877.315	0.125027	0.023446	-0.101581	-0.085721	0.130832	-0.0451117.32	0.124628	0.023054	-0.101574	-0.085264	0.130598	-0.0453337.325	0.124221	0.022832	-0.101389	-0.084901	0.130256	-0.0453557.33	0.123895	0.023042	-0.100853	-0.084834	0.129759	-0.0449247.335	0.123711	0.023245	-0.100466	-0.084845	0.129429	-0.0445847.34	0.12365	0.023302	-0.100348	-0.084842	0.129325	-0.0444837.345	0.12359	0.023531	-0.100059	-0.08494	0.129124	-0.0441847.35	0.123479	0.023766	-0.099713	-0.085012	0.12886	-0.0438487.355	0.123263	0.023664	-0.099598	-0.084828	0.128669	-0.043847.36	0.122895	0.023514	-0.099381	-0.08453	0.128331	-0.0438017.365	0.122487	0.023288	-0.099199	-0.084163	0.12799	-0.0438277.37	0.122172	0.022679	-0.099493	-0.08363	0.127978	-0.0443487.375	0.121886	0.022171	-0.099714	-0.083171	0.127941	-0.0447697.38	0.121595	0.022134	-0.099462	-0.082982	0.127627	-0.0446457.385	0.12139	0.022157	-0.099233	-0.082877	0.127377	-0.04457.39	0.121296	0.022186	-0.099109	-0.082839	0.127251	-0.0444117.395	0.121185	0.022346	-0.098839	-0.082868	0.127031	-0.0441637.4	0.121094	0.022281	-0.098812	-0.082778	0.126963	-0.0441857.405	0.121075	0.02195	-0.099125	-0.082575	0.127132	-0.0445577.41	0.12098	0.0219	-0.09908	-0.082492	0.127052	-0.044567.415	0.120759	0.022274	-0.098485	-0.08258	0.126581	-0.0440017.42	0.120504	0.022569	-0.097934	-0.082603	0.126115	-0.0435127.425	0.120179	0.022787	-0.097392	-0.082541	0.125615	-0.0430737.43	0.119803	0.02305	-0.096753	-0.082476	0.125028	-0.0425527.435	0.119492	0.023062	-0.09643	-0.082303	0.124662	-0.0423597.44	0.119285	0.023048	-0.096238	-0.082176	0.124432	-0.0422567.445	0.11914	0.023337	-0.095803	-0.082259	0.124097	-0.0418387.45	0.119012	0.0236	-0.095411	-0.082337	0.123797	-0.041467.455	0.118908	0.023428	-0.09548	-0.082178	0.123777	-0.0415997.46	0.11866	0.023219	-0.095441	-0.081913	0.123611	-0.0416987.465	0.118251	0.023104	-0.095147	-0.081611	0.123205	-0.0415947.47	0.117889	0.02279	-0.095099	-0.081221	0.122968	-0.0417487.475	0.117579	0.022515	-0.095064	-0.080883	0.122769	-0.0418867.48	0.117357	0.022633	-0.094723	-0.080823	0.122444	-0.0416217.485	0.117279	0.02274	-0.094539	-0.08084	0.122293	-0.0414547.49	0.117215	0.022758	-0.094457	-0.080813	0.122209	-0.0413967.495	0.117044	0.022856	-0.094188	-0.080771	0.121954	-0.0411837.5	0.116828	0.022705	-0.094123	-0.080559	0.121793	-0.0412337.505	0.116634	0.022263	-0.094371	-0.080192	0.121824	-0.0416327.51	0.11641	0.022029	-0.094381	-0.079928	0.1217	-0.0417727.515	0.116177	0.021966	-0.094211	-0.079756	0.121468	-0.0417117.52	0.116036	0.021704	-0.094332	-0.079524	0.121456	-0.0419327.525	0.115938	0.021528	-0.094409	-0.079366	0.121444	-0.0420787.53	0.115787	0.02167	-0.094117	-0.07936	0.121188	-0.0418287.535	0.115574	0.021773	-0.093801	-0.079297	0.120883	-0.0415857.54	0.115305	0.021835	-0.09347	-0.079178	0.120536	-0.0413597.545	0.114928	0.02205	-0.092878	-0.079084	0.119977	-0.0408937.55	0.114567	0.022081	-0.092486	-0.078893	0.119542	-0.0406487.555	0.114345	0.021747	-0.092598	-0.078573	0.119479	-0.0409067.56	0.114136	0.021624	-0.092512	-0.078381	0.119308	-0.0409277.565	0.113956	0.021829	-0.092127	-0.078395	0.118982	-0.0405877.57	0.113903	0.021778	-0.092125	-0.078336	0.118951	-0.0406157.575	0.113858	0.021612	-0.092246	-0.078213	0.118994	-0.0407817.58	0.113706	0.02179	-0.091916	-0.078228	0.118716	-0.0404877.585	0.113557	0.021962	-0.091595	-0.078242	0.118444	-0.0402037.59	0.113334	0.021919	-0.091415	-0.078088	0.118211	-0.0401247.595	0.112938	0.02199	-0.090948	-0.077901	0.117713	-0.0398127.6	0.112527	0.022015	-0.090512	-0.077677	0.117224	-0.0395477.605	0.112217	0.021809	-0.090407	-0.07738	0.116985	-0.0396057.61	0.111956	0.021725	-0.09023	-0.077181	0.116732	-0.0395517.615	0.111735	0.021687	-0.090048	-0.077031	0.116499	-0.0394687.62	0.111537	0.021287	-0.09025	-0.076686	0.116501	-0.0398167.625	0.111324	0.02084	-0.090484	-0.076305	0.116514	-0.0402097.63	0.111091	0.020794	-0.090297	-0.076144	0.116271	-0.0401287.635	0.110917	0.020832	-0.090085	-0.076065	0.116048	-0.0399837.64	0.110748	0.02073	-0.090018	-0.075909	0.115912	-0.0400037.645	0.110445	0.020683	-0.089762	-0.075707	0.115589	-0.0398837.65	0.110113	0.020409	-0.089705	-0.075357	0.115365	-0.0400087.655	0.109879	0.019865	-0.090014	-0.074908	0.115409	-0.0405017.66	0.109659	0.019671	-0.089988	-0.074669	0.115266	-0.0405977.665	0.109487	0.019838	-0.089649	-0.074666	0.114971	-0.0403057.67	0.109346	0.020079	-0.089267	-0.074724	0.114669	-0.0399457.675	0.109151	0.020528	-0.088624	-0.07487	0.114185	-0.0393157.68	0.108905	0.020973	-0.087932	-0.074985	0.113644	-0.0386597.685	0.108764	0.020852	-0.087913	-0.074834	0.113551	-0.0387187.69	0.10871	0.020356	-0.088355	-0.074516	0.113775	-0.0392597.695	0.108629	0.020184	-0.088445	-0.07437	0.113781	-0.0394117.7	0.108545	0.020295	-0.08825	-0.074385	0.113619	-0.0392347.705	0.108418	0.020371	-0.088047	-0.074357	0.113429	-0.0390727.71	0.108099	0.020581	-0.087517	-0.074293	0.112939	-0.0386467.715	0.107716	0.02079	-0.086926	-0.074193	0.112376	-0.0381847.72	0.107488	0.020754	-0.086734	-0.074041	0.112134	-0.0380947.725	0.107361	0.020812	-0.086549	-0.074	0.111954	-0.0379537.73	0.107201	0.021121	-0.08608	-0.074087	0.11159	-0.0375047.735	0.107015	0.021183	-0.085832	-0.074015	0.11134	-0.0373257.74	0.10687	0.020953	-0.085917	-0.073799	0.111306	-0.0375077.745	0.106733	0.020874	-0.085859	-0.073674	0.111193	-0.037527.75	0.106591	0.020696	-0.085895	-0.073489	0.111132	-0.0376437.755	0.106437	0.020197	-0.08624	-0.073112	0.111242	-0.038137.76	0.106176	0.019935	-0.086241	-0.07281	0.111092	-0.0382827.765	0.10582	0.020179	-0.085641	-0.072746	0.11054	-0.0377947.77	0.105459	0.020499	-0.08496	-0.072722	0.109938	-0.0372167.775	0.105055	0.02091	-0.084145	-0.072726	0.109235	-0.0365097.78	0.10466	0.021297	-0.083363	-0.072721	0.108555	-0.0358347.785	0.104422	0.021287	-0.083135	-0.072578	0.108286	-0.0357087.79	0.104261	0.021102	-0.083159	-0.072378	0.108207	-0.0358297.795	0.104035	0.021109	-0.082925	-0.072252	0.107941	-0.0356897.8	0.103797	0.021024	-0.082773	-0.072066	0.107717	-0.0356517.805	0.103655	0.020583	-0.083072	-0.071729	0.107807	-0.0360787.81	0.103488	0.020205	-0.083283	-0.071414	0.107833	-0.0364187.815	0.10325	0.019994	-0.083256	-0.071155	0.107679	-0.0365247.82	0.103092	0.019685	-0.083407	-0.070885	0.107675	-0.036797.825	0.103016	0.019509	-0.083507	-0.07074	0.107689	-0.0369497.83	0.102901	0.019569	-0.083332	-0.070708	0.107521	-0.0368137.835	0.102744	0.019325	-0.083419	-0.070476	0.107481	-0.0370057.84	0.102515	0.018833	-0.083682	-0.07006	0.107501	-0.0374417.845	0.102194	0.01869	-0.083504	-0.069793	0.107213	-0.037427.85	0.101852	0.01868	-0.083172	-0.069589	0.106824	-0.0372357.855	0.10153	0.018494	-0.083036	-0.069296	0.106559	-0.0372647.86	0.101186	0.018488	-0.082698	-0.069094	0.106165	-0.0370717.865	0.100853	0.018753	-0.0821	-0.069055	0.105628	-0.0365737.87	0.100636	0.01885	-0.081786	-0.068985	0.105321	-0.0363367.875	0.100461	0.018864	-0.081597	-0.068892	0.105111	-0.0362197.88	0.100249	0.019028	-0.08122	-0.068864	0.104771	-0.0359077.885	0.100064	0.018983	-0.081081	-0.068732	0.104585	-0.0358537.89	0.099863	0.018694	-0.081168	-0.068449	0.104518	-0.0360697.895	0.099557	0.018581	-0.080976	-0.068207	0.104231	-0.0360247.9	0.099258	0.018509	-0.080749	-0.067992	0.103927	-0.0359357.905	0.099084	0.018337	-0.080748	-0.067793	0.103826	-0.0360337.91	0.098899	0.018419	-0.080481	-0.067734	0.103565	-0.0358317.915	0.098657	0.0187	-0.079957	-0.067756	0.103123	-0.0353677.92	0.098492	0.018588	-0.079904	-0.067596	0.102997	-0.0354017.925	0.098332	0.018273	-0.080059	-0.067322	0.102994	-0.0356727.93	0.098063	0.018297	-0.079766	-0.06718	0.10267	-0.0354897.935	0.097822	0.018293	-0.079528	-0.067039	0.102393	-0.0353547.94	0.097629	0.018122	-0.079507	-0.066828	0.10227	-0.0354417.945	0.097386	0.018107	-0.079279	-0.06668	0.101998	-0.0353187.95	0.097123	0.018016	-0.079107	-0.066475	0.101746	-0.0352717.955	0.096925	0.017878	-0.079047	-0.066281	0.101597	-0.0353167.96	0.096727	0.018064	-0.078663	-0.066275	0.101262	-0.0349877.965	0.096508	0.018169	-0.078339	-0.066208	0.100948	-0.0347397.97	0.096266	0.017911	-0.078355	-0.06592	0.100817	-0.0348977.975	0.095977	0.017813	-0.078164	-0.065697	0.100541	-0.0348447.98	0.095658	0.018154	-0.077505	-0.065709	0.099976	-0.0342667.985	0.095437	0.018442	-0.076995	-0.065748	0.099553	-0.0338067.99	0.095303	0.018457	-0.076846	-0.065679	0.09939	-0.0337117.995	0.095107	0.018376	-0.076731	-0.065519	0.099211	-0.0336928	0.094875	0.018076	-0.076799	-0.065212	0.099116	-0.0339048.005	0.094739	0.017652	-0.077086	-0.064889	0.099203	-0.0343148.01	0.094677	0.017582	-0.077095	-0.064812	0.099172	-0.034368.015	0.094638	0.01783	-0.076808	-0.064933	0.098985	-0.0340518.02	0.09463	0.017913	-0.076716	-0.064977	0.098926	-0.033958.025	0.094573	0.018037	-0.076536	-0.065016	0.09879	-0.0337748.03	0.094389	0.018392	-0.075997	-0.065115	0.098373	-0.0332588.035	0.094158	0.018453	-0.075705	-0.065016	0.09807	-0.0330548.04	0.093882	0.018182	-0.075699	-0.0647	0.097907	-0.0332078.045	0.093492	0.018171	-0.075321	-0.064468	0.097464	-0.0329968.05	0.093089	0.018481	-0.074608	-0.064415	0.096819	-0.0324058.055	0.092681	0.018756	-0.073926	-0.064338	0.096191	-0.0318528.06	0.092231	0.018982	-0.073248	-0.064209	0.09554	-0.0313318.065	0.091826	0.018885	-0.072941	-0.063919	0.095128	-0.0312098.07	0.0916	0.01837	-0.07323	-0.063491	0.095164	-0.0316738.075	0.091525	0.017934	-0.073592	-0.063196	0.09533	-0.0321348.08	0.091494	0.017716	-0.073778	-0.063052	0.095419	-0.0323678.085	0.091509	0.017368	-0.074141	-0.06286	0.095638	-0.0327788.09	0.091489	0.01701	-0.074478	-0.062642	0.095821	-0.0331798.095	0.091341	0.017036	-0.074305	-0.062572	0.095636	-0.0330648.1	0.091153	0.017157	-0.073995	-0.062533	0.095348	-0.0328158.105	0.091057	0.017103	-0.073954	-0.062447	0.095269	-0.0328238.11	0.090911	0.01726	-0.073652	-0.062452	0.09501	-0.0325588.115	0.090609	0.017542	-0.073066	-0.062441	0.094498	-0.0320578.12	0.090264	0.017472	-0.072791	-0.062201	0.09414	-0.0319388.125	0.089838	0.017338	-0.0725	-0.061878	0.093726	-0.0318488.13	0.089371	0.017332	-0.072039	-0.061605	0.09319	-0.0315858.135	0.089049	0.017096	-0.071953	-0.061283	0.092955	-0.0316728.14	0.08888	0.016739	-0.072141	-0.060979	0.092965	-0.0319878.145	0.088792	0.016773	-0.07202	-0.060948	0.092845	-0.0318978.15	0.088766	0.016974	-0.071792	-0.061049	0.092698	-0.0316498.155	0.088766	0.016891	-0.071875	-0.061001	0.092746	-0.0317458.16	0.088644	0.016803	-0.07184	-0.06088	0.092655	-0.0317768.165	0.088413	0.016779	-0.071634	-0.060733	0.092403	-0.0316718.17	0.088235	0.016515	-0.07172	-0.060477	0.09235	-0.0318728.175	0.088099	0.016269	-0.071831	-0.060257	0.092335	-0.0320798.18	0.088009	0.016229	-0.071781	-0.060182	0.092255	-0.0320738.185	0.087948	0.016105	-0.071843	-0.060075	0.092255	-0.032188.19	0.087759	0.016038	-0.071721	-0.059927	0.092076	-0.0321498.195	0.087336	0.016344	-0.070992	-0.05986	0.091411	-0.0315518.2	0.086877	0.016713	-0.070164	-0.059807	0.090667	-0.030868.205	0.086618	0.016782	-0.069836	-0.059698	0.090329	-0.0306318.21	0.086473	0.016819	-0.069655	-0.059636	0.09014	-0.0305058.215	0.086321	0.016728	-0.069592	-0.059495	0.090016	-0.0305218.22	0.086129	0.01636	-0.069769	-0.059172	0.090007	-0.0308368.225	0.085812	0.016199	-0.069613	-0.058896	0.089734	-0.0308398.23	0.085421	0.016304	-0.069117	-0.058731	0.089222	-0.0304928.235	0.085063	0.016221	-0.068842	-0.058476	0.088857	-0.0303818.24	0.084709	0.016097	-0.068611	-0.0582	0.088519	-0.0303198.245	0.08437	0.016154	-0.068216	-0.058037	0.088096	-0.0300588.25	0.084135	0.01599	-0.068145	-0.057807	0.087919	-0.0301118.255	0.083973	0.015631	-0.068342	-0.057506	0.087939	-0.0304338.26	0.083767	0.015545	-0.068221	-0.057338	0.08775	-0.0304138.265	0.083487	0.015679	-0.067808	-0.057254	0.087351	-0.0300978.27	0.083203	0.015561	-0.067642	-0.057021	0.08709	-0.0300698.275	0.082952	0.015381	-0.067571	-0.056772	0.086904	-0.0301328.28	0.082805	0.015488	-0.067317	-0.056749	0.086673	-0.0299248.285	0.082868	0.01556	-0.067309	-0.056827	0.086705	-0.0298778.29	0.082969	0.015497	-0.067472	-0.056849	0.086857	-0.0300088.295	0.082887	0.01557	-0.067317	-0.056844	0.08672	-0.0298768.3	0.082684	0.015515	-0.06717	-0.056695	0.086518	-0.0298238.305	0.08243	0.015177	-0.067253	-0.056353	0.086419	-0.0300668.31	0.082065	0.01511	-0.066955	-0.056104	0.086036	-0.0299338.315	0.08167	0.015298	-0.066373	-0.055985	0.085473	-0.0294888.32	0.081342	0.015248	-0.066094	-0.055766	0.085122	-0.0293568.325	0.081037	0.015087	-0.065949	-0.055497	0.084863	-0.0293658.33	0.080717	0.015168	-0.065549	-0.055359	0.084447	-0.0290878.335	0.080438	0.015148	-0.06529	-0.055186	0.084136	-0.028958.34	0.080195	0.014867	-0.065328	-0.054884	0.084018	-0.0291338.345	0.079958	0.014639	-0.065318	-0.054616	0.083875	-0.0292598.35	0.079786	0.014392	-0.065394	-0.054374	0.08382	-0.0294468.355	0.079688	0.01423	-0.065458	-0.054224	0.0838	-0.0295768.36	0.079535	0.014502	-0.065033	-0.054292	0.083466	-0.0291748.365	0.079329	0.01493	-0.064399	-0.05442	0.082981	-0.0285618.37	0.07918	0.015073	-0.064106	-0.054417	0.082726	-0.0283098.375	0.079101	0.015169	-0.063932	-0.054427	0.08258	-0.0281538.38	0.078985	0.015488	-0.063497	-0.054544	0.082262	-0.0277188.385	0.078841	0.015707	-0.063134	-0.054587	0.081969	-0.0273828.39	0.078645	0.015756	-0.062889	-0.054502	0.081714	-0.0272128.395	0.07835	0.015949	-0.062401	-0.054444	0.081263	-0.0268198.4	0.078079	0.015936	-0.062142	-0.05428	0.080957	-0.0266778.405	0.077921	0.015464	-0.062456	-0.053916	0.081047	-0.0271318.41	0.077775	0.015113	-0.062662	-0.053629	0.081082	-0.0274528.415	0.077575	0.014904	-0.062672	-0.053393	0.080972	-0.0275798.42	0.077351	0.014575	-0.062776	-0.053074	0.080903	-0.0278298.425	0.077095	0.014513	-0.062582	-0.05289	0.080643	-0.0277538.43	0.076782	0.014693	-0.062089	-0.052813	0.080177	-0.0273648.435	0.07655	0.014594	-0.061956	-0.052622	0.079967	-0.0273448.44	0.076488	0.014283	-0.062206	-0.052407	0.080075	-0.0276688.445	0.076437	0.014281	-0.062156	-0.052376	0.080016	-0.0276418.45	0.076287	0.014417	-0.06187	-0.052368	0.079765	-0.0273978.455	0.076074	0.014383	-0.061692	-0.052225	0.079539	-0.0273148.46	0.07581	0.014485	-0.061325	-0.052132	0.079175	-0.0270438.465	0.075547	0.014729	-0.060817	-0.052121	0.07873	-0.0266098.47	0.075408	0.01476	-0.060647	-0.052059	0.078551	-0.0264938.475	0.075286	0.014789	-0.060497	-0.052005	0.078394	-0.0263898.48	0.075093	0.014987	-0.060106	-0.052008	0.078057	-0.026058.485	0.07485	0.014948	-0.059903	-0.051845	0.0778	-0.0259558.49	0.074495	0.014741	-0.059754	-0.051521	0.077509	-0.0259888.495	0.074028	0.014907	-0.059121	-0.051346	0.076874	-0.0255278.5	0.07364	0.0151	-0.058539	-0.051234	0.076314	-0.0250798.505	0.073426	0.014906	-0.05852	-0.050999	0.076179	-0.0251818.51	0.073263	0.01478	-0.058483	-0.050831	0.076063	-0.0252328.515	0.073102	0.014913	-0.058189	-0.050816	0.075801	-0.0249858.52	0.072945	0.014907	-0.058038	-0.050721	0.075623	-0.0249028.525	0.072708	0.014908	-0.0578	-0.050585	0.075349	-0.0247648.53	0.072373	0.014903	-0.05747	-0.050389	0.074965	-0.0245768.535	0.072095	0.014571	-0.057523	-0.050037	0.074835	-0.0247988.54	0.071945	0.014163	-0.057783	-0.049714	0.074899	-0.0251848.545	0.071804	0.013975	-0.057828	-0.049525	0.074843	-0.0253188.55	0.071707	0.013788	-0.057919	-0.04936	0.074839	-0.0254798.555	0.071648	0.01349	-0.058158	-0.049154	0.074943	-0.0257898.56	0.071441	0.01344	-0.058	-0.049006	0.074733	-0.0257278.565	0.071028	0.013517	-0.057511	-0.048812	0.074212	-0.02548.57	0.070563	0.013316	-0.057247	-0.048428	0.073791	-0.0253638.575	0.070106	0.013144	-0.056962	-0.048064	0.073362	-0.0252988.58	0.069659	0.013307	-0.056353	-0.047901	0.072753	-0.0248528.585	0.069433	0.013309	-0.056125	-0.047771	0.072491	-0.024728.59	0.069433	0.013125	-0.056308	-0.047665	0.072597	-0.0249328.595	0.069493	0.013135	-0.056359	-0.047705	0.072661	-0.0249568.6	0.069604	0.013107	-0.056497	-0.047753	0.072804	-0.0250518.605	0.069685	0.012844	-0.056841	-0.047648	0.07305	-0.0254028.61	0.06958	0.012831	-0.056749	-0.04758	0.072937	-0.0253568.615	0.069318	0.013202	-0.056116	-0.047643	0.072419	-0.0247768.62	0.069046	0.013388	-0.055658	-0.047593	0.071998	-0.0244058.625	0.068788	0.0134	-0.055388	-0.047451	0.071693	-0.0242428.63	0.068518	0.013616	-0.054902	-0.04742	0.071256	-0.0238368.635	0.068235	0.013714	-0.054521	-0.047313	0.070873	-0.023568.64	0.067889	0.013502	-0.054387	-0.046992	0.070596	-0.0236058.645	0.067484	0.013252	-0.054232	-0.046613	0.070273	-0.023668.65	0.067217	0.012907	-0.054309	-0.04626	0.070163	-0.0239038.655	0.067303	0.012778	-0.054525	-0.046235	0.070337	-0.0241028.66	0.067508	0.013197	-0.05431	-0.046595	0.070332	-0.0237368.665	0.067576	0.013698	-0.053878	-0.046924	0.070121	-0.0231978.67	0.067508	0.013696	-0.053813	-0.046883	0.070045	-0.0231618.675	0.067284	0.013539	-0.053744	-0.046663	0.069875	-0.0232128.68	0.066989	0.013463	-0.053526	-0.046449	0.06958	-0.0231318.685	0.066832	0.013102	-0.053729	-0.04615	0.069606	-0.0234568.69	0.066707	0.012689	-0.054018	-0.045839	0.069701	-0.0238628.695	0.066426	0.012719	-0.053707	-0.045695	0.069359	-0.0236648.7	0.066054	0.012862	-0.053192	-0.045562	0.068846	-0.0232848.705	0.065727	0.012938	-0.052789	-0.045418	0.068425	-0.0230088.71	0.065397	0.013161	-0.052236	-0.045355	0.067915	-0.022568.715	0.065069	0.013228	-0.051841	-0.045205	0.067498	-0.0222938.72	0.064816	0.012968	-0.051848	-0.044909	0.067356	-0.0224488.725	0.064552	0.012823	-0.051729	-0.044673	0.067135	-0.0224638.73	0.064189	0.012925	-0.051264	-0.044522	0.066657	-0.0221358.735	0.063832	0.012828	-0.051004	-0.044259	0.0663	-0.0220418.74	0.063565	0.012551	-0.051014	-0.043946	0.066152	-0.0222068.745	0.063353	0.012456	-0.050896	-0.043768	0.065962	-0.0221938.75	0.063201	0.012316	-0.050885	-0.043599	0.065867	-0.0222688.755	0.063071	0.012	-0.051071	-0.043343	0.0659	-0.0225588.76	0.062872	0.011892	-0.05098	-0.043165	0.065732	-0.0225688.765	0.06266	0.011957	-0.050703	-0.04308	0.06545	-0.022378.77	0.06253	0.011875	-0.050655	-0.042958	0.065348	-0.022398.775	0.062367	0.011891	-0.050476	-0.042872	0.06515	-0.0222778.78	0.062128	0.012133	-0.049994	-0.042875	0.064733	-0.0218598.785	0.061891	0.012106	-0.049786	-0.042722	0.064477	-0.0217558.79	0.06168	0.011767	-0.049912	-0.042405	0.064428	-0.0220238.795	0.061424	0.011632	-0.049792	-0.042179	0.06421	-0.0220318.8	0.061108	0.011675	-0.049433	-0.042022	0.063821	-0.0217998.805	0.060762	0.011645	-0.049117	-0.041804	0.063439	-0.0216358.81	0.060394	0.011771	-0.048624	-0.041664	0.062942	-0.0212778.815	0.060134	0.011902	-0.048232	-0.04159	0.062565	-0.0209768.82	0.06006	0.011821	-0.048239	-0.0415	0.062527	-0.0210268.825	0.060024	0.011873	-0.04815	-0.04151	0.062454	-0.0209458.83	0.059938	0.012019	-0.047919	-0.041545	0.062272	-0.0207278.835	0.059898	0.011838	-0.04806	-0.041417	0.06233	-0.0209138.84	0.059825	0.011515	-0.04831	-0.041188	0.062432	-0.0212448.845	0.059555	0.011388	-0.048167	-0.040959	0.062193	-0.0212358.85	0.059119	0.011248	-0.04787	-0.040626	0.06177	-0.0211448.855	0.058625	0.010999	-0.047626	-0.040197	0.061344	-0.0211478.86	0.05815	0.011036	-0.047114	-0.039945	0.060774	-0.020838.865	0.057791	0.011187	-0.046604	-0.039824	0.060272	-0.0204488.87	0.057636	0.010968	-0.046668	-0.039608	0.060219	-0.0206118.875	0.057529	0.010709	-0.04682	-0.039398	0.060246	-0.0208488.88	0.057418	0.010521	-0.046896	-0.039224	0.060226	-0.0210018.885	0.057495	0.010036	-0.047459	-0.038989	0.060595	-0.0216068.89	0.057706	0.009655	-0.048051	-0.038891	0.061059	-0.0221688.895	0.057774	0.009942	-0.047833	-0.039096	0.060972	-0.0218768.9	0.057662	0.010542	-0.047121	-0.039377	0.060496	-0.0211198.905	0.057451	0.010869	-0.046582	-0.039445	0.060064	-0.0206198.91	0.057129	0.011122	-0.046007	-0.039405	0.059545	-0.0201418.915	0.056766	0.011345	-0.045421	-0.039324	0.058998	-0.0196748.92	0.056502	0.011166	-0.045336	-0.039068	0.058796	-0.0197288.925	0.056309	0.010849	-0.04546	-0.038773	0.058756	-0.0199838.93	0.056162	0.010806	-0.045355	-0.038664	0.058611	-0.0199478.935	0.056094	0.010821	-0.045274	-0.038634	0.058525	-0.0198918.94	0.056044	0.0109	-0.045144	-0.03865	0.058421	-0.0197718.945	0.055894	0.011255	-0.04464	-0.038768	0.058043	-0.0192758.95	0.055702	0.011541	-0.044161	-0.038823	0.057656	-0.0188338.955	0.055518	0.011456	-0.044062	-0.038668	0.057492	-0.0188258.96	0.055187	0.01137	-0.043817	-0.038427	0.05716	-0.0187338.965	0.054715	0.011268	-0.043446	-0.038095	0.056673	-0.0185788.97	0.054276	0.010948	-0.043328	-0.037657	0.056351	-0.0186948.975	0.053882	0.010826	-0.043056	-0.037359	0.055967	-0.0186078.98	0.053494	0.011008	-0.042486	-0.03724	0.055414	-0.0181748.985	0.053156	0.010955	-0.042201	-0.037014	0.055055	-0.018048.99	0.052878	0.010773	-0.042104	-0.036749	0.054838	-0.0180898.995	0.05261	0.010853	-0.041757	-0.03664	0.054483	-0.0178439	0.052414	0.010833	-0.041581	-0.036516	0.054268	-0.0177539.005	0.052318	0.01059	-0.041728	-0.03632	0.054298	-0.0179789.01	0.052198	0.010545	-0.041652	-0.036224	0.054184	-0.017969.015	0.052086	0.010576	-0.041511	-0.036178	0.054038	-0.017869.02	0.052121	0.010289	-0.041832	-0.036032	0.054244	-0.0182119.025	0.052122	0.009946	-0.042175	-0.035835	0.054442	-0.0186079.03	0.05194	0.009915	-0.042025	-0.035712	0.05425	-0.0185389.035	0.051711	0.00992	-0.041791	-0.035583	0.053984	-0.0184019.04	0.051506	0.009952	-0.041554	-0.035482	0.053728	-0.0182459.045	0.051293	0.010211	-0.041082	-0.035509	0.053332	-0.0178249.05	0.051113	0.010311	-0.040801	-0.035463	0.053066	-0.0176039.055	0.051011	0.010111	-0.0409	-0.035289	0.053065	-0.0177769.06	0.050901	0.010104	-0.040797	-0.035221	0.052941	-0.017729.065	0.050772	0.010247	-0.040525	-0.03523	0.052711	-0.0174819.07	0.050668	0.01007	-0.040598	-0.035067	0.052692	-0.0176259.075	0.050519	0.009838	-0.04068	-0.034847	0.052654	-0.0178079.08	0.050239	0.009874	-0.040364	-0.034706	0.05231	-0.0176039.085	0.049956	0.009769	-0.040188	-0.034482	0.052044	-0.0175629.09	0.049732	0.009446	-0.040285	-0.034166	0.051971	-0.0178059.095	0.049538	0.009222	-0.040316	-0.033925	0.051877	-0.0179529.1	0.049419	0.008949	-0.04047	-0.033699	0.051897	-0.0181989.105	0.049306	0.008748	-0.040558	-0.033518	0.051883	-0.0183669.11	0.049028	0.008954	-0.040074	-0.033476	0.051444	-0.0179679.115	0.048621	0.009174	-0.039447	-0.033368	0.050846	-0.0174789.12	0.048237	0.009129	-0.039108	-0.033121	0.050429	-0.0173089.125	0.047892	0.009159	-0.038733	-0.032938	0.050013	-0.0170759.13	0.047618	0.009365	-0.038253	-0.032899	0.049578	-0.0166799.135	0.047451	0.009354	-0.038097	-0.032796	0.049391	-0.0165959.14	0.047327	0.009198	-0.038129	-0.032635	0.049338	-0.0167039.145	0.047118	0.009324	-0.037794	-0.032587	0.049024	-0.0164379.15	0.046933	0.009371	-0.037562	-0.032508	0.048784	-0.0162769.155	0.046895	0.009095	-0.0378	-0.032326	0.048899	-0.0165739.16	0.046881	0.008965	-0.037915	-0.032243	0.048957	-0.0167149.165	0.046751	0.00892	-0.037831	-0.032142	0.048833	-0.0166929.17	0.046511	0.008797	-0.037714	-0.031932	0.048627	-0.0166959.175	0.046144	0.009043	-0.037102	-0.031862	0.048062	-0.01629.18	0.045702	0.009661	-0.03604	-0.031964	0.047194	-0.015239.185	0.045384	0.009952	-0.035432	-0.031949	0.046659	-0.014719.19	0.045232	0.009766	-0.035466	-0.031753	0.046591	-0.0148389.195	0.045201	0.009614	-0.035588	-0.031648	0.046644	-0.0149969.2	0.045229	0.009417	-0.035812	-0.03155	0.046789	-0.0152399.205	0.045226	0.00902	-0.036205	-0.031319	0.047014	-0.0156959.21	0.04508	0.008872	-0.036208	-0.031149	0.046932	-0.0157839.215	0.044846	0.008964	-0.035881	-0.031067	0.046608	-0.015549.22	0.044596	0.008907	-0.035689	-0.03089	0.046353	-0.0154639.225	0.044304	0.008923	-0.035381	-0.030731	0.046006	-0.0152759.23	0.043999	0.009053	-0.034946	-0.030629	0.045579	-0.014959.235	0.043776	0.008812	-0.034964	-0.030361	0.04546	-0.0150999.24	0.043576	0.008422	-0.035154	-0.030021	0.045455	-0.0154349.245	0.04325	0.008378	-0.034872	-0.029808	0.045104	-0.0152969.25	0.042903	0.008301	-0.034603	-0.029563	0.044748	-0.0151869.255	0.042698	0.007899	-0.0348	-0.029212	0.044743	-0.0155319.26	0.042519	0.007596	-0.034923	-0.028934	0.044712	-0.0157789.265	0.042371	0.007453	-0.034919	-0.028766	0.044623	-0.0158579.27	0.042244	0.007338	-0.034906	-0.028626	0.044542	-0.0159179.275	0.042009	0.007516	-0.034493	-0.028593	0.044168	-0.0155759.28	0.041728	0.007846	-0.033882	-0.028621	0.043653	-0.0150329.285	0.041553	0.007854	-0.033699	-0.028526	0.043447	-0.0149219.29	0.041488	0.007731	-0.033757	-0.028416	0.043442	-0.0150269.295	0.041369	0.007725	-0.033644	-0.028344	0.043309	-0.0149659.3	0.041149	0.007526	-0.033623	-0.028103	0.04317	-0.0150679.305	0.040855	0.007022	-0.033834	-0.027642	0.043121	-0.015489.31	0.040488	0.006815	-0.033673	-0.02731	0.042817	-0.0155069.315	0.040177	0.007003	-0.033174	-0.02724	0.042349	-0.0151099.32	0.040032	0.007146	-0.032886	-0.027238	0.042099	-0.0148619.325	0.039985	0.007387	-0.032598	-0.02735	0.041906	-0.0145569.33	0.039916	0.007829	-0.032087	-0.027566	0.041571	-0.0140059.335	0.039866	0.007886	-0.03198	-0.02757	0.041481	-0.0139119.34	0.0398	0.007659	-0.032141	-0.0274	0.041535	-0.0141359.345	0.039643	0.007673	-0.031969	-0.027318	0.041345	-0.0140279.35	0.039506	0.007654	-0.031851	-0.027228	0.041198	-0.013979.355	0.039469	0.007336	-0.032134	-0.027023	0.04134	-0.0143179.36	0.039404	0.007136	-0.032269	-0.02687	0.041381	-0.0145119.365	0.039272	0.007084	-0.032187	-0.026764	0.041257	-0.0144939.37	0.039207	0.006794	-0.032412	-0.026559	0.041349	-0.014799.375	0.039141	0.006536	-0.032604	-0.026371	0.041422	-0.015059.38	0.038947	0.006648	-0.032299	-0.026324	0.041134	-0.0148099.385	0.038625	0.006749	-0.031876	-0.026197	0.040704	-0.0145079.39	0.038161	0.006904	-0.031257	-0.026019	0.040079	-0.014069.395	0.037654	0.007215	-0.030439	-0.025905	0.039314	-0.0134089.4	0.037291	0.007209	-0.030082	-0.025692	0.038897	-0.0132069.405	0.037059	0.006943	-0.030116	-0.025404	0.038783	-0.0133799.41	0.036756	0.006965	-0.029791	-0.025242	0.038421	-0.0131799.415	0.036365	0.007159	-0.029206	-0.025129	0.037858	-0.0127299.42	0.036063	0.007124	-0.028939	-0.024934	0.037529	-0.0125959.425	0.035838	0.007142	-0.028695	-0.024814	0.037258	-0.0124449.43	0.035593	0.007338	-0.028255	-0.024786	0.036863	-0.0120779.435	0.035397	0.007205	-0.028193	-0.024596	0.036714	-0.0121189.44	0.035304	0.006867	-0.028438	-0.024348	0.036801	-0.0124549.445	0.035279	0.006771	-0.028508	-0.024277	0.036827	-0.012559.45	0.035313	0.006648	-0.028666	-0.024226	0.036938	-0.0127129.455	0.035325	0.006359	-0.028965	-0.024066	0.037118	-0.0130529.46	0.035209	0.006293	-0.028915	-0.023961	0.037022	-0.0130619.465	0.03507	0.006374	-0.028697	-0.023928	0.036816	-0.0128889.47	0.035058	0.006209	-0.02885	-0.023825	0.036897	-0.0130729.475	0.03514	0.006005	-0.029135	-0.023755	0.037109	-0.0133549.48	0.035121	0.006063	-0.029057	-0.023778	0.037053	-0.0132769.485	0.035005	0.006078	-0.028928	-0.023719	0.036912	-0.0131939.49	0.034888	0.006036	-0.028852	-0.023628	0.036801	-0.0131739.495	0.034748	0.006197	-0.028552	-0.02364	0.036546	-0.0129079.5	0.034507	0.006287	-0.02822	-0.023552	0.036216	-0.0126639.505	0.034186	0.006144	-0.028042	-0.023285	0.035927	-0.0126439.51	0.033852	0.0061	-0.027752	-0.023066	0.035567	-0.0125019.515	0.033593	0.006038	-0.027556	-0.022881	0.035304	-0.0124239.52	0.033426	0.00579	-0.027636	-0.022642	0.035254	-0.0126129.525	0.033222	0.005847	-0.027375	-0.022556	0.034986	-0.012439.53	0.032928	0.00622	-0.026709	-0.022602	0.034431	-0.0118299.535	0.032631	0.006274	-0.026358	-0.022462	0.034057	-0.0115959.54	0.032355	0.006016	-0.026339	-0.022153	0.033887	-0.0117349.545	0.032042	0.005984	-0.026059	-0.021954	0.033545	-0.0115919.55	0.031765	0.006107	-0.025658	-0.021865	0.033153	-0.0112889.555	0.031606	0.00626	-0.025346	-0.021862	0.032881	-0.0110199.56	0.031454	0.006612	-0.024842	-0.021977	0.032502	-0.0105259.565	0.03125	0.006814	-0.024437	-0.021976	0.032151	-0.0101749.57	0.030979	0.006678	-0.024301	-0.021741	0.031916	-0.0101759.575	0.030623	0.006637	-0.023987	-0.021512	0.031529	-0.0100179.58	0.030281	0.006636	-0.023644	-0.021314	0.031134	-0.009829.585	0.030079	0.006282	-0.023797	-0.020993	0.031105	-0.0101129.59	0.029963	0.005872	-0.024091	-0.020689	0.031208	-0.0105199.595	0.029816	0.005797	-0.024019	-0.020561	0.031082	-0.0105219.6	0.029681	0.005697	-0.023984	-0.020425	0.030983	-0.0105589.605	0.029604	0.005373	-0.02423	-0.020194	0.031081	-0.0108879.61	0.029558	0.005357	-0.024202	-0.020158	0.031038	-0.010889.615	0.029565	0.00554	-0.024025	-0.020268	0.03094	-0.0106729.62	0.02961	0.005423	-0.024187	-0.020227	0.03106	-0.0108349.625	0.02956	0.005337	-0.024223	-0.020148	0.031052	-0.0109049.63	0.029379	0.005469	-0.023911	-0.02012	0.030767	-0.0106479.635	0.029162	0.005447	-0.023714	-0.019981	0.030528	-0.0105469.64	0.028902	0.005579	-0.023322	-0.019907	0.030152	-0.0102449.645	0.02853	0.006072	-0.022458	-0.019977	0.029438	-0.0094619.65	0.028184	0.00639	-0.021794	-0.019962	0.028855	-0.0088939.655	0.027978	0.006173	-0.021805	-0.019717	0.028742	-0.0090259.66	0.027776	0.005963	-0.021812	-0.019479	0.02863	-0.009159.665	0.02759	0.005943	-0.021647	-0.01936	0.028427	-0.0090679.67	0.027523	0.00569	-0.021833	-0.019176	0.028496	-0.009329.675	0.027486	0.005359	-0.022128	-0.018963	0.028645	-0.0096829.68	0.027372	0.005241	-0.022131	-0.018829	0.028581	-0.0097519.685	0.027182	0.005103	-0.022079	-0.01864	0.02844	-0.0098019.69	0.02691	0.005097	-0.021813	-0.018479	0.028131	-0.0096519.695	0.026636	0.005385	-0.021251	-0.018487	0.027648	-0.009169.7	0.026486	0.005457	-0.021029	-0.018443	0.027433	-0.0089919.705	0.026411	0.005195	-0.021215	-0.018248	0.027497	