Time	Lead I	Lead II	Lead III	aVR	aVL	aVF
0.000000	-0.000971	-0.000620	0.000351	0.000919	-0.000764	-0.000155
0.005000	-0.018467	-0.012024	0.006443	0.017604	-0.014381	-0.003223
0.010000	-0.077560	-0.050429	0.027131	0.073895	-0.060443	-0.013451
0.015000	-0.174346	-0.113496	0.060850	0.166185	-0.135790	-0.030395
0.020000	-0.280797	-0.184201	0.096596	0.268467	-0.217888	-0.050578
0.025000	-0.368877	-0.245838	0.123039	0.354906	-0.284007	-0.070898
0.030000	-0.424583	-0.288505	0.136078	0.411701	-0.323697	-0.088004
0.035000	-0.447519	-0.309330	0.138189	0.436967	-0.338159	-0.098808
0.040000	-0.444416	-0.312911	0.131505	0.437243	-0.332508	-0.104735
0.045000	-0.425064	-0.306804	0.118260	0.422544	-0.313688	-0.108856
0.050000	-0.398681	-0.295729	0.102951	0.400918	-0.289617	-0.111300
0.055000	-0.371932	-0.281664	0.090268	0.377353	-0.266851	-0.110502
0.060000	-0.348206	-0.266059	0.082147	0.354646	-0.248464	-0.106182
0.065000	-0.328340	-0.249809	0.078531	0.333794	-0.234907	-0.098887
0.070000	-0.312057	-0.233251	0.078807	0.314834	-0.225665	-0.089169
0.075000	-0.299157	-0.216766	0.082390	0.297868	-0.220286	-0.077582
0.080000	-0.290183	-0.200100	0.090083	0.283064	-0.219546	-0.063518
0.085000	-0.285727	-0.182077	0.103650	0.270087	-0.224807	-0.045280
0.090000	-0.286256	-0.163162	0.123093	0.259472	-0.236338	-0.023134
0.095000	-0.292931	-0.145680	0.147252	0.253232	-0.254140	0.000907
0.100000	-0.307251	-0.130345	0.176906	0.252646	-0.279529	0.026882
0.105000	-0.330279	-0.116535	0.213744	0.257968	-0.314092	0.056123
0.110000	-0.361644	-0.105351	0.256293	0.269619	-0.356766	0.087146
0.115000	-0.399644	-0.098571	0.301073	0.287644	-0.404559	0.116915
0.120000	-0.441972	-0.096245	0.345728	0.310740	-0.454779	0.144039
0.125000	-0.484806	-0.098426	0.386380	0.336729	-0.502979	0.166250
0.130000	-0.522666	-0.103045	0.419621	0.361254	-0.544029	0.182775
0.135000	-0.549109	-0.105256	0.443852	0.377798	-0.573286	0.195488
0.140000	-0.557958	-0.101804	0.456154	0.380914	-0.585498	0.204584
0.145000	-0.546088	-0.090631	0.455457	0.367610	-0.578242	0.210633
0.150000	-0.514653	-0.069423	0.445230	0.337216	-0.554188	0.216972
0.155000	-0.467342	-0.035576	0.431766	0.290359	-0.519100	0.228740
0.160000	-0.408024	0.012677	0.420702	0.228253	-0.478465	0.250212
0.165000	-0.338529	0.076248	0.414777	0.151428	-0.434921	0.283493
0.170000	-0.257028	0.149861	0.406888	0.061873	-0.383312	0.321439
0.175000	-0.161729	0.219184	0.380913	-0.033171	-0.313294	0.346466
0.180000	-0.055484	0.267963	0.323447	-0.122675	-0.218776	0.341451
0.185000	0.055814	0.283703	0.227889	-0.196020	-0.099347	0.295367
0.190000	0.166461	0.259234	0.092773	-0.245775	0.042544	0.203231
0.195000	0.268343	0.196550	-0.071793	-0.268406	0.196377	0.072029
0.200000	0.349682	0.107058	-0.242624	-0.263699	0.341968	-0.078269
0.205000	0.399130	0.004472	-0.394658	-0.233020	0.458294	-0.225274
0.210000	0.411002	-0.102083	-0.513085	-0.178355	0.533522	-0.355167
0.215000	0.387748	-0.206233	-0.593981	-0.104797	0.566801	-0.462004
0.220000	0.337059	-0.298135	-0.635195	-0.022473	0.561331	-0.538858
0.225000	0.269085	-0.366384	-0.635469	0.056176	0.522244	-0.578420
0.230000	0.193989	-0.403797	-0.597786	0.121133	0.457132	-0.578264
0.235000	0.118684	-0.409077	-0.527762	0.167658	0.373226	-0.540884
0.240000	0.046510	-0.387351	-0.433861	0.196785	0.277342	-0.474126
0.245000	-0.021268	-0.347975	-0.326707	0.213182	0.176345	-0.389528
0.250000	-0.084699	-0.300237	-0.215537	0.222243	0.075539	-0.297782
0.255000	-0.145253	-0.250824	-0.105571	0.228675	-0.022910	-0.205765
0.260000	-0.203972	-0.204247	-0.000275	0.235685	-0.117604	-0.118081
0.265000	-0.260858	-0.162575	0.098284	0.244469	-0.207350	-0.037118
0.270000	-0.316227	-0.126172	0.190055	0.255419	-0.292301	0.036883
0.275000	-0.370029	-0.095269	0.274760	0.268640	-0.372269	0.103629
0.280000	-0.421488	-0.068563	0.352924	0.282931	-0.447107	0.164176
0.285000	-0.470218	-0.043631	0.426587	0.296671	-0.517770	0.221099
0.290000	-0.515907	-0.019101	0.496806	0.308887	-0.584690	0.275803
0.295000	-0.557881	0.004409	0.562290	0.319547	-0.646731	0.327183
0.300000	-0.595213	0.026472	0.621686	0.328363	-0.702577	0.374214
0.305000	-0.627186	0.047483	0.674669	0.334692	-0.751626	0.416935
0.310000	-0.654495	0.067020	0.721515	0.339179	-0.794439	0.455260
0.315000	-0.679069	0.085095	0.764164	0.342931	-0.833250	0.490320
0.320000	-0.702456	0.101798	0.804254	0.346790	-0.869899	0.523110
0.325000	-0.725175	0.116540	0.841714	0.351395	-0.904643	0.553248
0.330000	-0.747348	0.129633	0.876981	0.356638	-0.937806	0.581168
0.335000	-0.769009	0.142807	0.911817	0.361538	-0.970425	0.608887
0.340000	-0.790138	0.156775	0.946913	0.365672	-1.002886	0.637214
0.345000	-0.810501	0.170568	0.981069	0.369465	-1.034363	0.664898
0.350000	-0.830094	0.183637	1.013730	0.373232	-1.064532	0.691300
0.355000	-0.849054	0.195294	1.044348	0.377448	-1.093155	0.715707
0.360000	-0.866388	0.204758	1.071146	0.381992	-1.118635	0.736643
0.365000	-0.881593	0.212675	1.094269	0.386200	-1.140764	0.754564
0.370000	-0.895864	0.220374	1.116238	0.389995	-1.161687	0.771693
0.375000	-0.909503	0.228047	1.137549	0.393439	-1.181866	0.788427
0.380000	-0.921811	0.235232	1.157043	0.396396	-1.200226	0.803830
0.385000	-0.932363	0.241670	1.174033	0.398771	-1.216128	0.817357
0.390000	-0.940561	0.246384	1.186945	0.400783	-1.228315	0.827532
0.395000	-0.945810	0.248334	1.194144	0.402688	-1.235502	0.832814
0.400000	-0.947716	0.247244	1.194960	0.404418	-1.237074	0.832656
0.405000	-0.946022	0.242732	1.188754	0.406044	-1.232513	0.826469
0.410000	-0.941202	0.233569	1.174771	0.408552	-1.221657	0.813105
0.415000	-0.934249	0.220425	1.154674	0.412126	-1.206040	0.793913
0.420000	-0.925140	0.206289	1.131429	0.415029	-1.187360	0.772332
0.425000	-0.912644	0.192705	1.105349	0.415657	-1.165088	0.749432
0.430000	-0.896223	0.179832	1.076055	0.413609	-1.138695	0.725086
0.435000	-0.876230	0.167744	1.043974	0.409045	-1.108630	0.699585
0.440000	-0.852460	0.155779	1.008239	0.402229	-1.074275	0.672046
0.445000	-0.825332	0.143476	0.968808	0.393669	-1.035847	0.642178
0.450000	-0.796162	0.131599	0.927760	0.383685	-0.995306	0.611621
0.455000	-0.766051	0.121350	0.887401	0.372218	-0.954620	0.582402
0.460000	-0.734917	0.113076	0.847993	0.359020	-0.913893	0.554873
0.465000	-0.703100	0.106348	0.809448	0.344535	-0.873269	0.528735
0.470000	-0.671342	0.100488	0.771829	0.329582	-0.833215	0.503632
0.475000	-0.640125	0.094613	0.734738	0.314951	-0.793777	0.478826
0.480000	-0.610222	0.088869	0.699091	0.301003	-0.755932	0.454928
0.485000	-0.582228	0.084952	0.667180	0.287103	-0.721346	0.434243
0.490000	-0.555336	0.084069	0.639405	0.272086	-0.689783	0.417697
0.495000	-0.526823	0.086741	0.613564	0.254081	-0.658403	0.404322
0.500000	-0.494349	0.093869	0.588218	0.231217	-0.625020	0.393803
0.505000	-0.458400	0.105621	0.564020	0.203677	-0.590294	0.386617
0.510000	-0.420199	0.121162	0.541361	0.172649	-0.555157	0.382508
0.515000	-0.379498	0.138710	0.518207	0.139019	-0.518290	0.379271
0.520000	-0.334913	0.156172	0.491085	0.103196	-0.476890	0.373694
0.525000	-0.282996	0.175535	0.458532	0.062043	-0.428121	0.366079
0.530000	-0.218726	0.204322	0.423048	0.008316	-0.370528	0.362212
0.535000	-0.138977	0.251174	0.390151	-0.064777	-0.305492	0.370269
0.540000	-0.045499	0.320069	0.365568	-0.158523	-0.237330	0.395853
0.545000	0.057239	0.408147	0.350909	-0.268691	-0.169550	0.438241
0.550000	0.164085	0.507440	0.343355	-0.387705	-0.103501	0.491206
0.555000	0.266827	0.602303	0.335475	-0.501792	-0.039634	0.541426
0.560000	0.353567	0.671263	0.317696	-0.591685	0.020710	0.570976
0.565000	0.413345	0.697459	0.284114	-0.641323	0.074611	0.566711
0.570000	0.440713	0.671773	0.231060	-0.642294	0.121043	0.521251
0.575000	0.437382	0.593774	0.156392	-0.595338	0.162229	0.433108
0.580000	0.408961	0.475061	0.066100	-0.510390	0.197951	0.312439
0.585000	0.363116	0.336040	-0.027076	-0.403657	0.225277	0.178380
0.590000	0.307777	0.196720	-0.111057	-0.291271	0.241814	0.049457
0.595000	0.248203	0.069692	-0.178511	-0.183537	0.246363	-0.062827
0.600000	0.187302	-0.038293	-0.225595	-0.086030	0.238386	-0.152356
0.605000	0.127478	-0.121688	-0.249166	-0.003343	0.217455	-0.214112
0.610000	0.069679	-0.176140	-0.245819	0.061465	0.182152	-0.243618
0.615000	0.013028	-0.200382	-0.213410	0.108169	0.130734	-0.238903
0.620000	-0.043510	-0.198379	-0.154868	0.139654	0.064293	-0.203947
0.625000	-0.099974	-0.178090	-0.078117	0.160540	-0.012619	-0.147921
0.630000	-0.156151	-0.147008	0.009144	0.175029	-0.095433	-0.079596
0.635000	-0.211285	-0.110755	0.100530	0.185929	-0.180026	-0.005903
0.640000	-0.264686	-0.074272	0.190414	0.195697	-0.262752	0.067055
0.645000	-0.315640	-0.042087	0.273553	0.206534	-0.340171	0.133637
0.650000	-0.363763	-0.016550	0.347213	0.219574	-0.410482	0.190908
0.655000	-0.408577	0.001727	0.410304	0.234895	-0.472781	0.237886
0.660000	-0.449404	0.013699	0.463103	0.251554	-0.526836	0.275282
0.665000	-0.486142	0.022331	0.508473	0.267781	-0.574241	0.306459
0.670000	-0.519262	0.030133	0.549395	0.282399	-0.616990	0.334591
0.675000	-0.549261	0.036301	0.585562	0.296158	-0.655190	0.359032
0.680000	-0.575862	0.039689	0.615552	0.309560	-0.687863	0.378303
0.685000	-0.599744	0.041744	0.641488	0.322161	-0.716625	0.394464
0.690000	-0.621836	0.044344	0.666181	0.333415	-0.743636	0.410222
0.695000	-0.642205	0.048299	0.690504	0.342892	-0.769439	0.426548
0.700000	-0.661199	0.053931	0.715130	0.350606	-0.794623	0.444018
0.705000	-0.680130	0.060542	0.740672	0.357719	-0.820300	0.462581
0.710000	-0.699354	0.066514	0.765868	0.365370	-0.845946	0.480576
0.715000	-0.718004	0.070999	0.789003	0.373549	-0.870071	0.496522
0.720000	-0.734524	0.074224	0.808747	0.381224	-0.891008	0.509783
0.725000	-0.747466	0.076326	0.823792	0.387483	-0.907166	0.519683
0.730000	-0.757069	0.077950	0.835019	0.392089	-0.919192	0.527103
0.735000	-0.764821	0.079913	0.844734	0.395432	-0.929277	0.533845
0.740000	-0.771588	0.081658	0.853246	0.398331	-0.938098	0.539767
0.745000	-0.777076	0.082917	0.859993	0.400773	-0.945162	0.544389
0.750000	-0.780740	0.085264	0.866004	0.401533	-0.950748	0.549215
0.755000	-0.782017	0.089590	0.871608	0.399773	-0.954720	0.554948
0.760000	-0.779954	0.094417	0.874371	0.395795	-0.955125	0.559330
0.765000	-0.774022	0.098605	0.872627	0.389952	-0.950693	0.560741
0.770000	-0.764770	0.102276	0.867045	0.382491	-0.942128	0.559637
0.775000	-0.752581	0.105460	0.858040	0.373615	-0.929892	0.556277
0.780000	-0.737272	0.108296	0.845568	0.363139	-0.913853	0.550713
0.785000	-0.718838	0.111376	0.830214	0.350718	-0.894345	0.543627
0.790000	-0.696854	0.114043	0.810897	0.336486	-0.870500	0.534014
0.795000	-0.671311	0.115610	0.786920	0.320834	-0.841910	0.521076
0.800000	-0.643504	0.116694	0.760198	0.304154	-0.810427	0.506273
0.805000	-0.615098	0.117865	0.732962	0.287077	-0.778303	0.491225
0.810000	-0.587766	0.118727	0.706493	0.270800	-0.747240	0.476440
0.815000	-0.562458	0.120106	0.682564	0.255392	-0.718813	0.463421
0.820000	-0.539332	0.123560	0.662892	0.240046	-0.694104	0.454058
0.825000	-0.517516	0.128816	0.646332	0.224416	-0.671948	0.447532
0.830000	-0.495638	0.134561	0.630199	0.208468	-0.650002	0.441534
0.835000	-0.473268	0.139845	0.613113	0.192502	-0.627222	0.434720
0.840000	-0.450986	0.143135	0.594121	0.177738	-0.603392	0.425655
0.845000	-0.429937	0.144513	0.574450	0.164790	-0.579883	0.415093
0.850000	-0.411049	0.147486	0.558534	0.152168	-0.559789	0.407621
0.855000	-0.394695	0.155490	0.550184	0.138105	-0.545526	0.407421
0.860000	-0.380525	0.168318	0.548844	0.122518	-0.536571	0.414053
0.865000	-0.368705	0.184688	0.553394	0.106242	-0.532374	0.426132
0.870000	-0.358244	0.204800	0.563044	0.088591	-0.531905	0.443314
0.875000	-0.346627	0.228667	0.575294	0.068105	-0.532271	0.464167
0.880000	-0.331348	0.256117	0.587464	0.043435	-0.530476	0.487042
0.885000	-0.309360	0.288140	0.597499	0.012251	-0.523575	0.511324
0.890000	-0.277261	0.325385	0.602646	-0.027785	-0.508015	0.535799
0.895000	-0.233721	0.367154	0.600875	-0.077037	-0.481854	0.558891
0.900000	-0.178933	0.411052	0.589986	-0.134014	-0.443935	0.577949
0.905000	-0.113242	0.454606	0.567848	-0.197087	-0.393227	0.590314
0.910000	-0.038093	0.498594	0.536687	-0.265871	-0.331849	0.597720
0.915000	0.041094	0.547340	0.506246	-0.339732	-0.268556	0.608288
0.920000	0.114710	0.603720	0.489010	-0.414786	-0.216102	0.630887
0.925000	0.173459	0.665886	0.492427	-0.484596	-0.184156	0.668752
0.930000	0.211708	0.729160	0.517451	-0.543210	-0.176521	0.719731
0.935000	0.229257	0.788731	0.559474	-0.587735	-0.190651	0.778386
0.940000	0.230019	0.835242	0.605223	-0.615029	-0.216624	0.831653
0.945000	0.218751	0.853551	0.634800	-0.619093	-0.240206	0.859300
0.950000	0.199165	0.831464	0.632299	-0.595034	-0.250070	0.845104
0.955000	0.174081	0.762715	0.588634	-0.540859	-0.239342	0.780202
0.960000	0.144273	0.648416	0.504143	-0.457659	-0.207771	0.665430
0.965000	0.108443	0.501879	0.393436	-0.352370	-0.164541	0.516910
0.970000	0.066767	0.344576	0.277809	-0.237489	-0.121845	0.359334
0.975000	0.021070	0.195420	0.174351	-0.124990	-0.088497	0.213487
0.980000	-0.026336	0.066819	0.093155	-0.023373	-0.068988	0.092361
0.985000	-0.073975	-0.031549	0.042426	0.060925	-0.067204	0.006280
0.990000	-0.120479	-0.095035	0.025444	0.124427	-0.084249	-0.040178
0.995000	-0.164746	-0.126303	0.038442	0.168037	-0.117311	-0.050727
1.000000	-0.206451	-0.132293	0.074158	0.195574	-0.162010	-0.033564
1.005000	-0.245521	-0.121899	0.123622	0.212130	-0.213124	0.000994
1.010000	-0.281844	-0.104925	0.176920	0.223301	-0.264868	0.041566
1.015000	-0.315542	-0.087026	0.228516	0.232423	-0.314112	0.081689
1.020000	-0.346107	-0.070078	0.276029	0.240285	-0.359191	0.118906
1.025000	-0.372695	-0.056335	0.316359	0.247700	-0.397825	0.150125
1.030000	-0.395495	-0.047789	0.347706	0.255930	-0.429087	0.173157
1.035000	-0.416076	-0.044627	0.371448	0.265987	-0.454677	0.188690
1.040000	-0.435460	-0.045908	0.389552	0.277918	-0.476321	0.198403
1.045000	-0.453233	-0.050173	0.403060	0.290641	-0.494381	0.203739
1.050000	-0.468849	-0.055589	0.413260	0.302784	-0.509285	0.206501
1.055000	-0.482150	-0.061139	0.421012	0.313668	-0.521440	0.207773
1.060000	-0.493878	-0.067132	0.426746	0.323899	-0.531522	0.207623
1.065000	-0.504663	-0.073064	0.431599	0.333551	-0.540550	0.207000
1.070000	-0.514290	-0.078351	0.435939	0.342161	-0.548614	0.206453
1.075000	-0.522616	-0.083283	0.439333	0.349816	-0.555381	0.205565
1.080000	-0.529467	-0.087767	0.441700	0.356360	-0.560703	0.204343
1.085000	-0.534136	-0.091342	0.442794	0.361119	-0.564031	0.202911
1.090000	-0.535538	-0.095110	0.440428	0.364104	-0.563474	0.199370
1.095000	-0.533530	-0.099832	0.433698	0.365671	-0.558429	0.192758
1.100000	-0.529256	-0.103875	0.425382	0.365538	-0.551160	0.185622
1.105000	-0.524018	-0.105392	0.418626	0.363390	-0.544235	0.180845
1.110000	-0.517672	-0.104876	0.412796	0.359428	-0.537206	0.177778
1.115000	-0.509386	-0.102766	0.406620	0.353426	-0.528856	0.175430
1.120000	-0.499485	-0.099249	0.400236	0.345679	-0.519454	0.173775
1.125000	-0.488578	-0.095293	0.393285	0.337098	-0.509144	0.172046
1.130000	-0.476763	-0.090669	0.386093	0.327607	-0.498170	0.170563
1.135000	-0.463305	-0.083449	0.379857	0.315669	-0.486800	0.171131
1.140000	-0.447231	-0.072859	0.374372	0.300274	-0.474352	0.174078
1.145000	-0.428836	-0.059474	0.369363	0.281926	-0.460840	0.178914
1.150000	-0.409973	-0.043210	0.366763	0.261645	-0.448448	0.186804
1.155000	-0.392005	-0.024878	0.367127	0.240687	-0.438284	0.197597
1.160000	-0.374940	-0.006053	0.368888	0.219966	-0.429449	0.209483
1.165000	-0.358867	0.012843	0.371709	0.199777	-0.421798	0.222021
1.170000	-0.343749	0.031881	0.375630	0.180057	-0.415333	0.235277
1.175000	-0.329135	0.050069	0.379204	0.161118	-0.408960	0.247841
1.180000	-0.315068	0.066490	0.381558	0.143516	-0.402197	0.258680
1.185000	-0.302499	0.081551	0.384050	0.127564	-0.396379	0.268815
1.190000	-0.291779	0.095528	0.387307	0.113306	-0.392070	0.278765
1.195000	-0.282424	0.108242	0.390666	0.100564	-0.388609	0.288044
1.200000	-0.274420	0.120604	0.395023	0.088806	-0.386503	0.297697
1.205000	-0.266406	0.134383	0.400788	0.076224	-0.385204	0.308981
1.210000	-0.254453	0.150175	0.404628	0.060205	-0.380521	0.320316
1.215000	-0.235295	0.168077	0.403372	0.038808	-0.368734	0.329926
1.220000	-0.208990	0.187670	0.396660	0.012309	-0.349672	0.337363
1.225000	-0.176826	0.207953	0.384779	-0.017971	-0.324243	0.342214
1.230000	-0.139109	0.229195	0.368303	-0.052011	-0.292954	0.344966
1.235000	-0.095248	0.251516	0.346764	-0.090221	-0.255196	0.345417
1.240000	-0.042608	0.274578	0.317186	-0.133928	-0.207727	0.341655
1.245000	0.023183	0.298083	0.274900	-0.185483	-0.145329	0.330812
1.250000	0.104469	0.321402	0.216934	-0.245877	-0.064932	0.310808
1.255000	0.198867	0.342570	0.143703	-0.312598	0.031849	0.280749
1.260000	0.301829	0.358879	0.057049	-0.381460	0.141324	0.240136
1.265000	0.408115	0.368684	-0.039431	-0.448485	0.258391	0.190094
1.270000	0.508816	0.370398	-0.138418	-0.507614	0.373681	0.133933
1.275000	0.591883	0.361286	-0.230597	-0.550312	0.474859	0.075453
1.280000	0.647135	0.339886	-0.307249	-0.569857	0.551014	0.018843
1.285000	0.670075	0.309981	-0.360094	-0.565835	0.594768	-0.028933
1.290000	0.662916	0.280347	-0.382569	-0.544593	0.603611	-0.059018
1.295000	0.631548	0.261781	-0.369767	-0.515763	0.578109	-0.062346
1.300000	0.583806	0.263825	-0.319981	-0.489379	0.521801	-0.032422
1.305000	0.527278	0.291182	-0.236096	-0.472537	0.440734	0.031804
1.310000	0.466903	0.341441	-0.125462	-0.466698	0.342002	0.124696
1.315000	0.405624	0.406944	0.001319	-0.469136	0.233426	0.235710
1.320000	0.345671	0.474683	0.129013	-0.473631	0.125087	0.348544
1.325000	0.287683	0.523863	0.236180	-0.468546	0.029736	0.438811
1.330000	0.230680	0.534759	0.304079	-0.441926	-0.042377	0.484303
1.335000	0.173532	0.497631	0.324099	-0.387496	-0.086930	0.474426
1.340000	0.116356	0.412874	0.296518	-0.305551	-0.104017	0.409568
1.345000	0.059642	0.294531	0.234889	-0.204482	-0.101179	0.305661
1.350000	0.004096	0.166933	0.162836	-0.098743	-0.091649	0.190392
1.355000	-0.049804	0.052003	0.101807	-0.001270	-0.087533	0.088802
1.360000	-0.101312	-0.038624	0.062688	0.080792	-0.094685	0.013894
1.365000	-0.149828	-0.101298	0.048530	0.144988	-0.114522	-0.030466
1.370000	-0.194796	-0.135618	0.059178	0.190764	-0.146632	-0.044132
1.375000	-0.235465	-0.145327	0.090139	0.219850	-0.187988	-0.031863
1.380000	-0.271587	-0.137021	0.134567	0.235910	-0.234493	-0.001417
1.385000	-0.304094	-0.118002	0.186092	0.243697	-0.283009	0.039312
1.390000	-0.333825	-0.096601	0.237224	0.248506	-0.329695	0.081188
1.395000	-0.360553	-0.078557	0.281996	0.253520	-0.370976	0.117455
1.400000	-0.384883	-0.064840	0.320043	0.259647	-0.406989	0.147342
1.405000	-0.407605	-0.054830	0.352775	0.266987	-0.439005	0.172018
1.410000	-0.428622	-0.048726	0.379896	0.275597	-0.466798	0.191201
1.415000	-0.448342	-0.046634	0.401708	0.285775	-0.490776	0.205002
1.420000	-0.468303	-0.047385	0.420918	0.297732	-0.513391	0.215659
1.425000	-0.488710	-0.050239	0.438471	0.311162	-0.535308	0.224146
1.430000	-0.508109	-0.054939	0.453171	0.325076	-0.554995	0.229919
1.435000	-0.524792	-0.060511	0.464280	0.337925	-0.571041	0.233116
1.440000	-0.537684	-0.066872	0.470813	0.349040	-0.582256	0.233215
1.445000	-0.547303	-0.074296	0.473007	0.358880	-0.589076	0.230196
1.450000	-0.555216	-0.081691	0.473524	0.367718	-0.593943	0.226225
1.455000	-0.562190	-0.088598	0.473592	0.375732	-0.598008	0.222276
1.460000	-0.567788	-0.095616	0.472172	0.383016	-0.600421	0.217404
1.465000	-0.571484	-0.102306	0.469177	0.389013	-0.600825	0.211813
1.470000	-0.572801	-0.107926	0.464875	0.393018	-0.599103	0.206085
1.475000	-0.570816	-0.112647	0.458169	0.394597	-0.594085	0.199488
1.480000	-0.564992	-0.116856	0.448136	0.393665	-0.584929	0.191264
1.485000	-0.555909	-0.120248	0.435662	0.390379	-0.572484	0.182104
1.490000	-0.543963	-0.122939	0.421024	0.385036	-0.557135	0.172099
1.495000	-0.529035	-0.124426	0.404609	0.377276	-0.539040	0.161763
1.500000	-0.510932	-0.123408	0.387524	0.366236	-0.518724	0.152488
1.505000	-0.489138	-0.119644	0.369494	0.351480	-0.495731	0.144251
1.510000	-0.463734	-0.114084	0.349650	0.333603	-0.469607	0.136004
1.515000	-0.436175	-0.106689	0.329486	0.313422	-0.442055	0.128632
1.520000	-0.408259	-0.097012	0.311247	0.291718	-0.415407	0.123688
1.525000	-0.381680	-0.085953	0.295727	0.269988	-0.391101	0.121113
1.530000	-0.357178	-0.073668	0.283509	0.248749	-0.369901	0.121152
1.535000	-0.334887	-0.058209	0.276679	0.226954	-0.353088	0.126134
1.540000	-0.313825	-0.038900	0.274925	0.203646	-0.339915	0.136269
1.545000	-0.292461	-0.017945	0.274516	0.179213	-0.327344	0.148132
1.550000	-0.270406	0.002606	0.273012	0.154614	-0.313743	0.159129
1.555000	-0.248480	0.020980	0.269460	0.131347	-0.299032	0.167686
1.560000	-0.227226	0.036102	0.263328	0.110345	-0.283221	0.172876
1.565000	-0.204506	0.049213	0.253720	0.089658	-0.264557	0.174898
1.570000	-0.176446	0.062677	0.239122	0.065685	-0.239928	0.174243
1.575000	-0.139725	0.077256	0.216981	0.036066	-0.205944	0.169878
1.580000	-0.093445	0.092417	0.185862	0.000593	-0.161257	0.160664
1.585000	-0.038886	0.107807	0.146693	-0.039791	-0.107144	0.146935
1.590000	0.022130	0.122608	0.100478	-0.083565	-0.045234	0.128798
1.595000	0.089094	0.135536	0.046442	-0.129690	0.024625	0.105065
1.600000	0.164202	0.146716	-0.017486	-0.179508	0.104897	0.074611
1.605000	0.251472	0.155855	-0.095617	-0.235170	0.200392	0.034778
1.610000	0.351541	0.160536	-0.191004	-0.295648	0.313238	-0.017591
1.615000	0.459841	0.158650	-0.301192	-0.357086	0.439382	-0.082296
1.620000	0.570531	0.149066	-0.421465	-0.415459	0.572729	-0.157269
1.625000	0.677204	0.130460	-0.546745	-0.466305	0.706647	-0.240342
1.630000	0.769556	0.103194	-0.666361	-0.503882	0.829027	-0.325144
1.635000	0.835157	0.070146	-0.765012	-0.522677	0.923858	-0.401181
1.640000	0.864854	0.034906	-0.829949	-0.519476	0.978495	-0.459018
1.645000	0.857271	-0.000010	-0.857281	-0.494940	0.989897	-0.494957
1.650000	0.818064	-0.032376	-0.850440	-0.453617	0.963311	-0.509694
1.655000	0.756254	-0.061593	-0.817847	-0.401063	0.908807	-0.507744
1.660000	0.682336	-0.088593	-0.770929	-0.342797	0.839042	-0.496245
1.665000	0.605222	-0.112056	-0.717278	-0.284729	0.763545	-0.478816
1.670000	0.530056	-0.127073	-0.657129	-0.232663	0.685421	-0.452759
1.675000	0.459205	-0.126042	-0.585247	-0.192351	0.603014	-0.410663
1.680000	0.393089	-0.101293	-0.494382	-0.168468	0.512382	-0.343913
1.685000	0.330514	-0.049686	-0.380200	-0.162136	0.410331	-0.248195
1.690000	0.269904	0.025028	-0.244876	-0.170279	0.297208	-0.126930
1.695000	0.211123	0.113612	-0.097511	-0.187486	0.178189	0.009296
1.700000	0.154075	0.206500	0.052426	-0.208178	0.058687	0.149491
1.705000	0.098144	0.291437	0.193293	-0.224925	-0.054934	0.279859
1.710000	0.044074	0.350222	0.306149	-0.227647	-0.151309	0.378956
1.715000	-0.007247	0.369839	0.377086	-0.209342	-0.221895	0.431237
1.720000	-0.055449	0.347250	0.402700	-0.168471	-0.264512	0.432984
1.725000	-0.100309	0.285549	0.385858	-0.106949	-0.280688	0.387637
1.730000	-0.141167	0.196578	0.337744	-0.031992	-0.276499	0.308491
1.735000	-0.177142	0.100413	0.277555	0.044299	-0.262520	0.218220
1.740000	-0.208033	0.016366	0.224398	0.110659	-0.249664	0.139005
1.745000	-0.235103	-0.043790	0.191312	0.161019	-0.246191	0.085172
1.750000	-0.260106	-0.075238	0.184868	0.193611	-0.256906	0.063295
1.755000	-0.284123	-0.078735	0.205388	0.209496	-0.282620	0.073123
1.760000	-0.307549	-0.062044	0.245505	0.213385	-0.319306	0.105921
1.765000	-0.330447	-0.035936	0.294511	0.211532	-0.360820	0.149288
1.770000	-0.352981	-0.008822	0.344159	0.208887	-0.402494	0.193607
1.775000	-0.374958	0.013565	0.388523	0.208651	-0.440796	0.232145
1.780000	-0.396117	0.028230	0.424347	0.212399	-0.473695	0.261295
1.785000	-0.416596	0.034233	0.450829	0.220758	-0.500808	0.280050
1.790000	-0.436209	0.031853	0.468062	0.233455	-0.522081	0.288626
1.795000	-0.454865	0.023238	0.478103	0.249200	-0.538649	0.289449
1.800000	-0.473275	0.011942	0.485217	0.266351	-0.553386	0.287035
1.805000	-0.490866	0.000835	0.491701	0.282919	-0.567285	0.284366
1.810000	-0.506417	-0.009638	0.496779	0.297944	-0.579195	0.281251
1.815000	-0.519227	-0.019375	0.499852	0.310962	-0.588365	0.277403
1.820000	-0.528837	-0.028144	0.500693	0.321573	-0.594399	0.272826
1.825000	-0.534836	-0.037089	0.497747	0.330201	-0.596162	0.265961
1.830000	-0.536863	-0.047654	0.489209	0.337470	-0.592402	0.254932
1.835000	-0.535113	-0.059784	0.475329	0.343464	-0.583378	0.239915
1.840000	-0.530573	-0.073189	0.457383	0.348582	-0.570397	0.221814
1.845000	-0.523941	-0.087278	0.436664	0.352888	-0.554605	0.201718
1.850000	-0.514713	-0.100806	0.413906	0.355370	-0.536138	0.180768
1.855000	-0.501836	-0.113090	0.388746	0.355027	-0.514177	0.159150
1.860000	-0.484996	-0.124250	0.360746	0.351748	-0.488289	0.136541
1.865000	-0.464338	-0.133741	0.330598	0.345301	-0.458956	0.113655
1.870000	-0.440234	-0.140440	0.299794	0.335252	-0.427255	0.092003
1.875000	-0.413520	-0.144502	0.269018	0.322174	-0.394063	0.071889
1.880000	-0.385378	-0.146736	0.238641	0.307216	-0.360277	0.053061
1.885000	-0.356508	-0.146809	0.209699	0.290590	-0.326899	0.036310
1.890000	-0.326652	-0.144871	0.181781	0.272234	-0.293544	0.021310
1.895000	-0.296173	-0.141723	0.154450	0.252819	-0.260167	0.007348
1.900000	-0.265675	-0.136188	0.129486	0.232016	-0.228146	-0.003870
1.905000	-0.235828	-0.127257	0.108572	0.209627	-0.198839	-0.010788
1.910000	-0.207324	-0.115821	0.091503	0.186568	-0.172528	-0.014040
1.915000	-0.182378	-0.102619	0.079758	0.164543	-0.151344	-0.013199
1.920000	-0.168869	-0.089931	0.078938	0.149418	-0.143071	-0.006347
1.925000	-0.178526	-0.082984	0.095542	0.150983	-0.158233	0.007250
1.930000	-0.218506	-0.084785	0.133721	0.175105	-0.203358	0.028253
1.935000	-0.288190	-0.093218	0.194972	0.220206	-0.278954	0.058748
1.940000	-0.381465	-0.104617	0.276848	0.280640	-0.380077	0.099438
1.945000	-0.490549	-0.115584	0.374965	0.349951	-0.499705	0.149754
1.950000	-0.608518	-0.122314	0.486204	0.421946	-0.632038	0.210092
1.955000	-0.730428	-0.121495	0.608933	0.491858	-0.773281	0.281423
1.960000	-0.851077	-0.111440	0.739637	0.555709	-0.918399	0.362690
1.965000	-0.957590	-0.091503	0.866087	0.605694	-1.052900	0.447206
1.970000	-1.032113	-0.062991	0.969123	0.632258	-1.155414	0.523155
1.975000	-1.061273	-0.030188	1.031085	0.630155	-1.208023	0.577868
1.980000	-1.042562	0.001923	1.044485	0.600813	-1.204957	0.604144
1.985000	-0.984944	0.029600	1.014544	0.551567	-1.154404	0.602837
1.990000	-0.902682	0.050033	0.952715	0.492277	-1.071213	0.578937
1.995000	-0.809065	0.061338	0.870402	0.431700	-0.969640	0.537940
2.000000	-0.714069	0.063992	0.778061	0.375322	-0.861481	0.486159
2.005000	-0.623168	0.059219	0.682386	0.325596	-0.753761	0.428165
2.010000	-0.537048	0.048081	0.585129	0.282305	-0.647889	0.365584
2.015000	-0.454768	0.032773	0.487541	0.243639	-0.544042	0.300403
2.020000	-0.375402	0.016615	0.392017	0.207146	-0.443069	0.235923
2.025000	-0.298722	0.003917	0.302639	0.170205	-0.347196	0.176991
2.030000	-0.225319	0.000974	0.226293	0.129526	-0.260738	0.131212
2.035000	-0.156991	0.014113	0.171105	0.082491	-0.189426	0.106936
2.040000	-0.096373	0.046371	0.142744	0.028869	-0.138054	0.109186
2.045000	-0.044794	0.095008	0.139801	-0.028991	-0.106576	0.135567
2.050000	-0.001449	0.152473	0.153922	-0.087194	-0.089703	0.176897
2.055000	0.035326	0.209445	0.174119	-0.141318	-0.080132	0.221450
2.060000	0.068267	0.254409	0.186142	-0.186297	-0.068055	0.254352
2.065000	0.099592	0.275623	0.176031	-0.216631	-0.044132	0.260762
2.070000	0.129715	0.265587	0.135872	-0.228228	-0.003554	0.231782
2.075000	0.158462	0.221764	0.063302	-0.219524	0.054941	0.164583
2.080000	0.186635	0.148089	-0.038546	-0.193253	0.130008	0.063245
2.085000	0.214170	0.058408	-0.155762	-0.157373	0.213581	-0.056207
2.090000	0.240449	-0.028155	-0.268604	-0.122568	0.293902	-0.171334
2.095000	0.264581	-0.095758	-0.360339	-0.097470	0.360798	-0.263327
2.100000	0.285538	-0.135011	-0.420549	-0.086907	0.407659	-0.320753
2.105000	0.303236	-0.142729	-0.445965	-0.092668	0.432551	-0.339883
2.110000	0.318354	-0.122259	-0.440613	-0.113215	0.438189	-0.324974
2.115000	0.330826	-0.083463	-0.414289	-0.142815	0.430192	-0.287377
2.120000	0.339639	-0.039747	-0.379386	-0.173143	0.415129	-0.241987
2.125000	0.343970	-0.003759	-0.347729	-0.196421	0.399352	-0.202931
2.130000	0.343457	0.018597	-0.324859	-0.209032	0.385852	-0.176820
2.135000	0.336996	0.027546	-0.309450	-0.210469	0.373226	-0.162757
2.140000	0.323189	0.025777	-0.297413	-0.201476	0.358304	-0.156829
2.145000	0.300926	0.017289	-0.283636	-0.183722	0.337497	-0.153775
2.150000	0.269846	0.006754	-0.263092	-0.159695	0.307691	-0.147997
2.155000	0.231579	-0.003709	-0.235288	-0.131561	0.269546	-0.137985
2.160000	0.188777	-0.014875	-0.203653	-0.100402	0.226569	-0.126167
2.165000	0.144426	-0.027592	-0.172018	-0.067454	0.182699	-0.115245
2.170000	0.101706	-0.042096	-0.143802	-0.034416	0.141744	-0.107328
2.175000	0.061399	-0.060007	-0.121406	-0.000804	0.105543	-0.104739
2.180000	0.020172	-0.085151	-0.105323	0.037515	0.072455	-0.109970
2.185000	-0.027747	-0.120786	-0.093039	0.085755	0.037697	-0.123452
2.190000	-0.086275	-0.167824	-0.081549	0.146704	-0.002728	-0.143975
2.195000	-0.156375	-0.223699	-0.067325	0.219436	-0.051413	-0.168023
2.200000	-0.238055	-0.283138	-0.045084	0.300911	-0.111412	-0.189499
2.205000	-0.330416	-0.340033	-0.009617	0.387084	-0.185214	-0.201870
2.210000	-0.432658	-0.389962	0.042696	0.474940	-0.274446	-0.200494
2.215000	-0.544602	-0.430240	0.114362	0.562825	-0.380452	-0.182372
2.220000	-0.660396	-0.458156	0.202240	0.645796	-0.498043	-0.147753
2.225000	-0.764537	-0.470911	0.293626	0.713286	-0.610930	-0.102355
2.230000	-0.839865	-0.466729	0.373136	0.754362	-0.700326	-0.054036
2.235000	-0.875067	-0.446483	0.428584	0.762997	-0.752663	-0.010334
2.240000	-0.868536	-0.414779	0.453757	0.740921	-0.763426	0.022504
2.245000	-0.827752	-0.377835	0.449916	0.696046	-0.737662	0.041616
2.250000	-0.764550	-0.340091	0.424460	0.637765	-0.686475	0.048710
2.255000	-0.690369	-0.304890	0.385479	0.574613	-0.621141	0.046528
2.260000	-0.612414	-0.275654	0.336760	0.512727	-0.548006	0.035279
2.265000	-0.534129	-0.252613	0.281516	0.454225	-0.470913	0.016688
2.270000	-0.456964	-0.232719	0.224245	0.398188	-0.393296	-0.004893
2.275000	-0.380234	-0.213531	0.166703	0.342810	-0.315774	-0.027036
2.280000	-0.302797	-0.194235	0.108562	0.286961	-0.237498	-0.049463
2.285000	-0.224490	-0.175654	0.048836	0.231023	-0.157804	-0.073219
2.290000	-0.146636	-0.160148	-0.013512	0.177122	-0.076859	-0.100263
2.295000	-0.073030	-0.149023	-0.075993	0.128203	0.001711	-0.129913
2.300000	-0.007671	-0.141128	-0.133457	0.085909	0.072623	-0.158532
2.305000	0.048199	-0.134348	-0.182548	0.049738	0.133222	-0.182960
2.310000	0.095488	-0.127672	-0.223160	0.018581	0.183972	-0.202553
2.315000	0.135442	-0.120469	-0.255911	-0.008645	0.225947	-0.217303
2.320000	0.169737	-0.112273	-0.282010	-0.033177	0.260816	-0.227640
2.325000	0.200523	-0.103563	-0.304086	-0.055979	0.291336	-0.235356
2.330000	0.228825	-0.094697	-0.323522	-0.077439	0.318897	-0.241458
2.335000	0.254408	-0.085260	-0.339668	-0.097657	0.342990	-0.245332
2.340000	0.277253	-0.075702	-0.352956	-0.116366	0.363851	-0.247486
2.345000	0.297664	-0.066257	-0.363920	-0.133603	0.381965	-0.248363
2.350000	0.315457	-0.056626	-0.372083	-0.149436	0.396952	-0.247515
2.355000	0.330484	-0.047903	-0.378387	-0.163148	0.409267	-0.246119
2.360000	0.342607	-0.041752	-0.384359	-0.173698	0.419714	-0.246016
2.365000	0.351616	-0.038248	-0.389864	-0.180923	0.428093	-0.247170
2.370000	0.357415	-0.035447	-0.392861	-0.185888	0.433172	-0.247284
2.375000	0.359908	-0.031813	-0.391721	-0.189426	0.433954	-0.244528
2.380000	0.358732	-0.025155	-0.383887	-0.192590	0.428751	-0.236160
2.385000	0.353586	-0.010551	-0.364137	-0.198051	0.414377	-0.216326
2.390000	0.344401	0.016654	-0.327747	-0.208455	0.388065	-0.179609
2.395000	0.330437	0.058188	-0.272249	-0.224373	0.347961	-0.123588
2.400000	0.309771	0.112126	-0.197646	-0.243582	0.292957	-0.049375
2.405000	0.281630	0.171286	-0.110345	-0.261491	0.226307	0.035184
2.410000	0.247593	0.224454	-0.023140	-0.272537	0.156308	0.116229
2.415000	0.209982	0.262161	0.052179	-0.272591	0.091108	0.181484
2.420000	0.171312	0.276476	0.105164	-0.258531	0.038190	0.220340
2.425000	0.134784	0.260781	0.125997	-0.228379	0.005073	0.223306
2.430000	0.103113	0.214422	0.111309	-0.183329	-0.004732	0.188061
2.435000	0.077531	0.141420	0.063889	-0.126411	0.007876	0.118535
2.440000	0.057555	0.045820	-0.011735	-0.059683	0.040005	0.019679
2.445000	0.040400	-0.063287	-0.103688	0.013214	0.083189	-0.096403
2.450000	0.021937	-0.170782	-0.192719	0.085936	0.123932	-0.209868
2.455000	-0.001448	-0.263452	-0.262004	0.152940	0.150432	-0.303372
2.460000	-0.033524	-0.334364	-0.300840	0.212400	0.154335	-0.366735
2.465000	-0.078088	-0.379370	-0.301283	0.264113	0.128862	-0.392975
2.470000	-0.138149	-0.401209	-0.263060	0.311398	0.072117	-0.383516
2.475000	-0.213774	-0.412152	-0.198377	0.361378	-0.008890	-0.352489
2.480000	-0.298383	-0.422652	-0.124269	0.416289	-0.100524	-0.315765
2.485000	-0.379750	-0.432948	-0.053198	0.469211	-0.188535	-0.280676
2.490000	-0.445144	-0.438526	0.006618	0.510187	-0.260825	-0.249362
2.495000	-0.485787	-0.435746	0.050040	0.532047	-0.309360	-0.222687
2.500000	-0.499833	-0.422911	0.076921	0.532746	-0.332989	-0.199757
2.505000	-0.490585	-0.401033	0.089552	0.514776	-0.334942	-0.179834
2.510000	-0.463208	-0.373510	0.089698	0.483079	-0.319220	-0.163859
2.515000	-0.423624	-0.343461	0.080164	0.442877	-0.290862	-0.152015
2.520000	-0.377169	-0.313366	0.063803	0.398680	-0.254595	-0.144085
2.525000	-0.327214	-0.285538	0.041675	0.353773	-0.212978	-0.140794
2.530000	-0.275555	-0.261115	0.014441	0.309846	-0.167429	-0.142417
2.535000	-0.222325	-0.239096	-0.016770	0.266402	-0.118677	-0.147724
2.540000	-0.166651	-0.219051	-0.052400	0.222685	-0.065963	-0.156722
2.545000	-0.107580	-0.201868	-0.094288	0.178659	-0.007674	-0.170986
2.550000	-0.047054	-0.187843	-0.140789	0.135618	0.054118	-0.189735
2.555000	0.010173	-0.177110	-0.187283	0.096381	0.114001	-0.210382
2.560000	0.060641	-0.170189	-0.230830	0.063248	0.168281	-0.231528
2.565000	0.103645	-0.166693	-0.270338	0.036400	0.215920	-0.252320
2.570000	0.140467	-0.165450	-0.305917	0.014424	0.257720	-0.272143
2.575000	0.172666	-0.165909	-0.338576	-0.003901	0.295166	-0.291265
2.580000	0.201091	-0.166480	-0.367571	-0.019983	0.328317	-0.308334
2.585000	0.225797	-0.164950	-0.390747	-0.035130	0.355961	-0.320831
2.590000	0.246580	-0.161134	-0.407714	-0.049332	0.377757	-0.328424
2.595000	0.263871	-0.155925	-0.419796	-0.062323	0.394715	-0.332392
2.600000	0.278328	-0.149573	-0.427901	-0.074337	0.407742	-0.333405
2.605000	0.289674	-0.142539	-0.432213	-0.084948	0.416782	-0.331833
2.610000	0.297465	-0.136038	-0.433503	-0.093200	0.422024	-0.328824
2.615000	0.301750	-0.130371	-0.432121	-0.098946	0.423701	-0.324754
2.620000	0.302548	-0.124826	-0.427374	-0.102608	0.421420	-0.318812
2.625000	0.300117	-0.118929	-0.419045	-0.104609	0.415208	-0.310599
2.630000	0.294855	-0.111039	-0.405894	-0.106126	0.404577	-0.298451
2.635000	0.286717	-0.099344	-0.386062	-0.108180	0.388429	-0.280249
2.640000	0.275218	-0.084633	-0.359851	-0.110034	0.366657	-0.256623
2.645000	0.259953	-0.070413	-0.330366	-0.109431	0.340821	-0.231390
2.650000	0.240754	-0.059333	-0.300087	-0.104743	0.312255	-0.207511
2.655000	0.218090	-0.053070	-0.271160	-0.095274	0.282469	-0.187194
2.660000	0.193024	-0.053508	-0.246533	-0.080550	0.253778	-0.173229
2.665000	0.166916	-0.060637	-0.227553	-0.061360	0.227746	-0.166386
2.670000	0.142015	-0.072544	-0.214559	-0.040109	0.205868	-0.165759
2.675000	0.120746	-0.087699	-0.208445	-0.019079	0.190058	-0.170979
2.680000	0.104246	-0.104289	-0.208535	0.000025	0.180584	-0.180609
2.685000	0.092449	-0.120970	-0.213420	0.016467	0.176593	-0.193060
2.690000	0.084609	-0.140346	-0.224955	0.032180	0.178726	-0.210906
2.695000	0.078855	-0.167974	-0.246829	0.051453	0.188034	-0.239486
2.700000	0.071286	-0.207042	-0.278328	0.078379	0.201849	-0.280228
2.705000	0.058134	-0.257320	-0.315454	0.115000	0.215691	-0.330691
2.710000	0.036730	-0.317412	-0.354142	0.162052	0.225670	-0.387722
2.715000	0.003884	-0.383842	-0.387726	0.219369	0.226096	-0.445465
2.720000	-0.043459	-0.451766	-0.408307	0.285918	0.210645	-0.496563
2.725000	-0.107238	-0.517918	-0.410681	0.360934	0.175193	-0.536126
2.730000	-0.185910	-0.578339	-0.392429	0.441239	0.119233	-0.560473
2.735000	-0.271329	-0.622939	-0.351610	0.516306	0.046350	-0.562656
2.740000	-0.350460	-0.638128	-0.287668	0.570762	-0.036253	-0.534508
2.745000	-0.410811	-0.615861	-0.205050	0.592749	-0.118796	-0.473953
2.750000	-0.445291	-0.557449	-0.112158	0.578932	-0.192334	-0.386598
2.755000	-0.453703	-0.473018	-0.019316	0.535042	-0.250793	-0.284249
2.760000	-0.439742	-0.378460	0.061282	0.472389	-0.289267	-0.183122
2.765000	-0.408775	-0.290066	0.118709	0.403476	-0.304543	-0.098933
2.770000	-0.366930	-0.220128	0.146803	0.338938	-0.296604	-0.042334
2.775000	-0.319139	-0.177054	0.142085	0.286477	-0.266288	-0.020189
2.780000	-0.268527	-0.161588	0.106938	0.248327	-0.216775	-0.031552
2.785000	-0.216638	-0.166434	0.050204	0.221167	-0.154062	-0.067105
2.790000	-0.163110	-0.181808	-0.018698	0.199139	-0.083376	-0.115763
2.795000	-0.106860	-0.197869	-0.091010	0.175935	-0.009151	-0.166784
2.800000	-0.047425	-0.203483	-0.156058	0.144862	0.062720	-0.207581
2.805000	0.012390	-0.191441	-0.203830	0.103375	0.124835	-0.228210
2.810000	0.067980	-0.161252	-0.229232	0.053850	0.171595	-0.225445
2.815000	0.116390	-0.114760	-0.231150	-0.000941	0.200652	-0.199711
2.820000	0.157510	-0.053373	-0.210883	-0.060124	0.212692	-0.152568
2.825000	0.192925	0.016524	-0.176400	-0.120925	0.213230	-0.092304
2.830000	0.224148	0.082534	-0.141614	-0.177063	0.211173	-0.034110
2.835000	0.251733	0.132667	-0.119066	-0.221934	0.214081	0.007853
2.840000	0.275587	0.159513	-0.116074	-0.251205	0.226126	0.025079
2.845000	0.295498	0.163043	-0.132455	-0.264739	0.247079	0.017660
2.850000	0.311892	0.149637	-0.162255	-0.266464	0.273749	-0.007285
2.855000	0.325468	0.126903	-0.198564	-0.261176	0.302550	-0.041374
2.860000	0.335999	0.101620	-0.234379	-0.252660	0.329308	-0.076648
2.865000	0.342920	0.079667	-0.263254	-0.243980	0.349974	-0.105994
2.870000	0.346186	0.064488	-0.281698	-0.237102	0.362509	-0.125407
2.875000	0.346036	0.055083	-0.290953	-0.231586	0.367765	-0.136179
2.880000	0.343130	0.048530	-0.294600	-0.226125	0.368193	-0.142069
2.885000	0.338258	0.043722	-0.294536	-0.220536	0.365344	-0.144808
2.890000	0.331746	0.039381	-0.292365	-0.214270	0.360331	-0.146061
2.895000	0.323074	0.033411	-0.289663	-0.205817	0.353764	-0.147947
2.900000	0.310975	0.025038	-0.285937	-0.193997	0.344627	-0.150630
2.905000	0.294630	0.013814	-0.280816	-0.178080	0.332233	-0.154154
2.910000	0.274268	-0.001575	-0.275843	-0.157439	0.317606	-0.160167
2.915000	0.250666	-0.022131	-0.272797	-0.131944	0.302221	-0.170277
2.920000	0.224811	-0.047881	-0.272692	-0.102151	0.287234	-0.185083
2.925000	0.198662	-0.078506	-0.277168	-0.069372	0.274720	-0.205348
2.930000	0.174971	-0.113148	-0.288119	-0.035694	0.267365	-0.231671
2.935000	0.155502	-0.149751	-0.305253	-0.003321	0.266017	-0.262696
2.940000	0.140690	-0.186320	-0.327009	0.026345	0.270026	-0.296370
2.945000	0.128537	-0.222945	-0.351481	0.054506	0.277139	-0.331645
2.950000	0.112816	-0.261747	-0.374562	0.085985	0.281388	-0.367373
2.955000	0.085435	-0.305637	-0.391072	0.127134	0.275112	-0.402245
2.960000	0.041496	-0.356619	-0.398115	0.181936	0.253809	-0.435745
2.965000	-0.019824	-0.413232	-0.393408	0.250025	0.215689	-0.465713
2.970000	-0.097312	-0.471874	-0.374562	0.328620	0.160070	-0.488690
2.975000	-0.188348	-0.528407	-0.340059	0.413818	0.087590	-0.501409
2.980000	-0.290857	-0.578280	-0.287423	0.501796	-0.001983	-0.499813
2.985000	-0.403555	-0.616783	-0.213229	0.589092	-0.109885	-0.479207
2.990000	-0.519330	-0.639887	-0.120557	0.669274	-0.230232	-0.439042
2.995000	-0.621935	-0.644339	-0.022404	0.731084	-0.346139	-0.384944
3.000000	-0.694572	-0.627659	0.066913	0.763390	-0.439643	-0.323747
3.005000	-0.726552	-0.591307	0.135246	0.760866	-0.497559	-0.263307
3.010000	-0.717148	-0.542548	0.174601	0.727285	-0.514851	-0.212434
3.015000	-0.674549	-0.488946	0.185603	0.671744	-0.496609	-0.175135
3.020000	-0.610647	-0.435439	0.175209	0.603958	-0.453714	-0.150244
3.025000	-0.536394	-0.386318	0.150076	0.532727	-0.396333	-0.136394
3.030000	-0.458656	-0.343940	0.114716	0.463379	-0.331036	-0.132342
3.035000	-0.380799	-0.308408	0.072392	0.397914	-0.261650	-0.136264
3.040000	-0.303991	-0.279289	0.024702	0.336756	-0.189771	-0.146986
3.045000	-0.227498	-0.255097	-0.027599	0.278626	-0.115412	-0.163214
3.050000	-0.150413	-0.233374	-0.082961	0.221580	-0.038943	-0.182636
3.055000	-0.072491	-0.213702	-0.141211	0.165234	0.039675	-0.204909
3.060000	0.004831	-0.198426	-0.203256	0.111772	0.120139	-0.231911
3.065000	0.077398	-0.188482	-0.265880	0.064135	0.198191	-0.262326
3.070000	0.141361	-0.182531	-0.323892	0.023769	0.268614	-0.292384
3.075000	0.195952	-0.178878	-0.374831	-0.009858	0.329542	-0.319684
3.080000	0.242242	-0.176034	-0.418277	-0.038225	0.381351	-0.343125
3.085000	0.281427	-0.172682	-0.454109	-0.062783	0.424662	-0.361878
3.090000	0.315231	-0.168308	-0.483540	-0.084826	0.461170	-0.376344
3.095000	0.345651	-0.158548	-0.504199	-0.108024	0.490661	-0.382637
3.100000	0.373361	-0.134165	-0.507526	-0.138100	0.508580	-0.370480
3.105000	0.398143	-0.091102	-0.489245	-0.177270	0.512333	-0.335064
3.110000	0.420307	-0.034832	-0.455139	-0.222554	0.505439	-0.282885
3.115000	0.440097	0.026501	-0.413595	-0.269390	0.492879	-0.223489
3.120000	0.457263	0.084973	-0.372290	-0.313060	0.478943	-0.165883
3.125000	0.471806	0.131383	-0.340423	-0.348251	0.468940	-0.120689
3.130000	0.483393	0.158300	-0.325093	-0.370481	0.466779	-0.096298
3.135000	0.491629	0.161801	-0.329828	-0.377258	0.474269	-0.097010
3.140000	0.496548	0.143296	-0.353252	-0.369414	0.490632	-0.121218
3.145000	0.498117	0.109413	-0.388704	-0.350757	0.512006	-0.161249
3.150000	0.495921	0.069652	-0.426269	-0.326534	0.532427	-0.205893
3.155000	0.489619	0.033938	-0.455681	-0.302275	0.545769	-0.243493
3.160000	0.479186	0.010867	-0.468319	-0.282932	0.547042	-0.264109
3.165000	0.463823	0.005980	-0.457843	-0.271241	0.532124	-0.260883
3.170000	0.441712	0.021115	-0.420596	-0.267213	0.497853	-0.230640
3.175000	0.412366	0.053674	-0.358692	-0.269068	0.445170	-0.176102
3.180000	0.377362	0.099167	-0.278194	-0.275124	0.378485	-0.103361
3.185000	0.339004	0.148867	-0.190137	-0.281672	0.305500	-0.023828
3.190000	0.300068	0.188722	-0.111346	-0.282203	0.237530	0.044673
3.195000	0.263644	0.206732	-0.056912	-0.271571	0.185073	0.086499
3.200000	0.230847	0.199314	-0.031533	-0.248354	0.151486	0.096868
3.205000	0.196801	0.168540	-0.028261	-0.210930	0.129940	0.080990
3.210000	0.151531	0.118398	-0.033133	-0.155844	0.106616	0.049228
3.215000	0.087353	0.056439	-0.030914	-0.083019	0.068282	0.014737
3.220000	0.002732	-0.006599	-0.009330	0.002232	0.006964	-0.009197
3.225000	-0.098910	-0.062528	0.036382	0.093206	-0.078111	-0.015096
3.230000	-0.212329	-0.107405	0.104923	0.184598	-0.183165	-0.001433
3.235000	-0.332524	-0.139702	0.192822	0.272640	-0.303308	0.030668
3.240000	-0.455783	-0.158991	0.296792	0.354940	-0.434499	0.079559
3.245000	-0.577848	-0.165456	0.412392	0.429146	-0.571715	0.142569
3.250000	-0.686586	-0.159824	0.526762	0.488675	-0.700526	0.211851
3.255000	-0.764050	-0.144849	0.619201	0.524753	-0.798620	0.273867
3.260000	-0.796361	-0.125373	0.670988	0.532163	-0.847174	0.315011
3.265000	-0.780569	-0.105291	0.675278	0.511452	-0.840534	0.329082
3.270000	-0.725339	-0.087707	0.637632	0.469412	-0.786911	0.317499
3.275000	-0.644823	-0.076533	0.568291	0.416475	-0.700391	0.283917
3.280000	-0.552441	-0.073991	0.478450	0.361671	-0.595185	0.233514
3.285000	-0.458295	-0.078832	0.379463	0.310110	-0.483680	0.173570
3.290000	-0.367826	-0.090013	0.277813	0.264333	-0.372760	0.108427
3.295000	-0.281898	-0.106639	0.175259	0.224322	-0.263939	0.039617
3.300000	-0.199950	-0.126436	0.073513	0.188439	-0.157884	-0.030555
3.305000	-0.121085	-0.147639	-0.026553	0.155148	-0.054578	-0.100570
3.310000	-0.044858	-0.170432	-0.125573	0.124298	0.046601	-0.170899
3.315000	0.028068	-0.195014	-0.223082	0.096387	0.145002	-0.241388
3.320000	0.095805	-0.220708	-0.316513	0.072113	0.238052	-0.310165
3.325000	0.155803	-0.247239	-0.403042	0.052790	0.322650	-0.375440
3.330000	0.206434	-0.273906	-0.480339	0.038955	0.396509	-0.435463
3.335000	0.248529	-0.298392	-0.546921	0.028788	0.459253	-0.488042
3.340000	0.284200	-0.318636	-0.602835	0.019882	0.512130	-0.532011
3.345000	0.316331	-0.333639	-0.649969	0.009993	0.557894	-0.567886
3.350000	0.347043	-0.342045	-0.689088	-0.002885	0.598210	-0.595325
3.355000	0.376807	-0.343448	-0.720255	-0.019260	0.633388	-0.614129
3.360000	0.405350	-0.338675	-0.744025	-0.038495	0.663591	-0.625097
3.365000	0.433284	-0.329106	-0.762390	-0.060147	0.690323	-0.630176
3.370000	0.460739	-0.316947	-0.777687	-0.083018	0.715005	-0.631987
3.375000	0.487101	-0.304470	-0.791571	-0.105442	0.738241	-0.632799
3.380000	0.511136	-0.292178	-0.803313	-0.126415	0.758897	-0.632482
3.385000	0.531643	-0.278262	-0.809905	-0.146289	0.774543	-0.628254
3.390000	0.548635	-0.262402	-0.811038	-0.165257	0.785007	-0.619751
3.395000	0.562890	-0.246342	-0.809231	-0.182759	0.792194	-0.609435
3.400000	0.574451	-0.230097	-0.804549	-0.198813	0.796166	-0.597353
3.405000	0.582441	-0.212820	-0.795262	-0.213401	0.795417	-0.582016
3.410000	0.586129	-0.194747	-0.780875	-0.225964	0.789240	-0.563275
3.415000	0.585083	-0.176139	-0.761222	-0.236104	0.777290	-0.541186
3.420000	0.578061	-0.157951	-0.736012	-0.242551	0.758680	-0.516129
3.425000	0.563575	-0.141897	-0.705472	-0.243456	0.732684	-0.489228
3.430000	0.540608	-0.128267	-0.668875	-0.238065	0.698295	-0.460230
3.435000	0.508928	-0.116247	-0.625174	-0.226714	0.654774	-0.428059
3.440000	0.470019	-0.107381	-0.577401	-0.209369	0.604728	-0.395359
3.445000	0.426309	-0.103732	-0.530041	-0.186240	0.552149	-0.365909
3.450000	0.380953	-0.104837	-0.485791	-0.159416	0.500415	-0.340999
3.455000	0.338525	-0.107912	-0.446437	-0.133144	0.453198	-0.320054
3.460000	0.305302	-0.109275	-0.414577	-0.113176	0.415622	-0.302446
3.465000	0.287981	-0.106613	-0.394595	-0.104713	0.394085	-0.289372
3.470000	0.291029	-0.097440	-0.388468	-0.111768	0.392308	-0.280539
3.475000	0.314550	-0.080042	-0.394592	-0.135393	0.409423	-0.274030
3.480000	0.355299	-0.051865	-0.407164	-0.175188	0.440208	-0.265021
3.485000	0.409137	-0.009323	-0.418460	-0.230833	0.477813	-0.246980
3.490000	0.473495	0.049104	-0.424391	-0.301723	0.518395	-0.216672
3.495000	0.549347	0.119901	-0.429446	-0.386390	0.565106	-0.178716
3.500000	0.638908	0.191992	-0.446916	-0.479720	0.626900	-0.147180
3.505000	0.740691	0.249329	-0.491361	-0.571588	0.711325	-0.139737
3.510000	0.849320	0.276782	-0.572538	-0.650155	0.820910	-0.170755
3.515000	0.958902	0.264824	-0.694079	-0.706518	0.954349	-0.247830
3.520000	1.062256	0.213324	-0.848932	-0.736456	1.103424	-0.366969
3.525000	1.148476	0.130788	-1.017688	-0.738583	1.250635	-0.512052
3.530000	1.205864	0.030539	-1.175324	-0.713837	1.374779	-0.660942
3.535000	1.226674	-0.075338	-1.302012	-0.664724	1.459937	-0.795213
3.540000	1.211150	-0.180262	-1.391411	-0.595183	1.502589	-0.907406
3.545000	1.165831	-0.277121	-1.442952	-0.513097	1.506181	-0.993084
3.550000	1.099962	-0.353875	-1.453836	-0.430753	1.474435	-1.043682
3.555000	1.023749	-0.400478	-1.424227	-0.359845	1.413339	-1.053493
3.560000	0.945660	-0.414765	-1.360425	-0.306512	1.331418	-1.024906
3.565000	0.870422	-0.400562	-1.270984	-0.271274	1.236341	-0.965068
3.570000	0.799655	-0.365183	-1.164837	-0.250842	1.134199	-0.883357
3.575000	0.733293	-0.318693	-1.051986	-0.239370	1.030731	-0.791362
3.580000	0.670056	-0.269836	-0.939892	-0.231067	0.929503	-0.698437
3.585000	0.608407	-0.222722	-0.831129	-0.222676	0.831116	-0.608441
3.590000	0.548409	-0.179762	-0.728172	-0.212838	0.737034	-0.524196
3.595000	0.490198	-0.142457	-0.632655	-0.200769	0.648279	-0.447511
3.600000	0.433404	-0.110341	-0.543744	-0.186520	0.564156	-0.377636
3.605000	0.378616	-0.081818	-0.460434	-0.171356	0.484426	-0.313069
3.610000	0.326635	-0.055855	-0.382490	-0.156335	0.409413	-0.253078
3.615000	0.277928	-0.031214	-0.309142	-0.142440	0.338944	-0.196505
3.620000	0.232714	-0.007065	-0.239779	-0.130279	0.272794	-0.142515
3.625000	0.191838	0.015501	-0.176337	-0.119707	0.212566	-0.092859
3.630000	0.156236	0.036176	-0.120060	-0.111089	0.159519	-0.048430
3.635000	0.125494	0.056096	-0.069398	-0.104841	0.112520	-0.007680
3.640000	0.097954	0.075170	-0.022783	-0.099953	0.069708	0.030245
3.645000	0.072092	0.092407	0.020315	-0.094973	0.029893	0.065080
3.650000	0.047090	0.107842	0.060753	-0.089450	-0.007888	0.097338
3.655000	0.022530	0.121968	0.099438	-0.083426	-0.044403	0.127829
3.660000	-0.001401	0.134968	0.136368	-0.077115	-0.079541	0.156656
3.665000	-0.024754	0.148106	0.172860	-0.071218	-0.114092	0.185310
3.670000	-0.047615	0.162188	0.209804	-0.066149	-0.148621	0.214770
3.675000	-0.069789	0.175686	0.245475	-0.061140	-0.182017	0.243157
3.680000	-0.091250	0.186908	0.278158	-0.055228	-0.213278	0.268506
3.685000	-0.111442	0.196343	0.307784	-0.049018	-0.242040	0.291058
3.690000	-0.129337	0.204673	0.334010	-0.043495	-0.267514	0.311009
3.695000	-0.145474	0.212088	0.357562	-0.038460	-0.290428	0.328887
3.700000	-0.160931	0.219746	0.380678	-0.033957	-0.312698	0.346655
3.705000	-0.175593	0.228148	0.403742	-0.030343	-0.334479	0.364822
3.710000	-0.188824	0.235741	0.424565	-0.027088	-0.354141	0.381228
3.715000	-0.199979	0.241263	0.441242	-0.023835	-0.370209	0.394044
3.720000	-0.208554	0.244874	0.453428	-0.020970	-0.382196	0.403165
3.725000	-0.213940	0.245513	0.459453	-0.018228	-0.388783	0.407012
3.730000	-0.215507	0.241565	0.457072	-0.015044	-0.388313	0.403358
3.735000	-0.213658	0.233214	0.446871	-0.011291	-0.381356	0.392647
3.740000	-0.209475	0.221302	0.430777	-0.006828	-0.369650	0.376478
3.745000	-0.203201	0.207300	0.410501	-0.002367	-0.354320	0.356687
3.750000	-0.193825	0.193428	0.387253	0.000230	-0.335486	0.335256
3.755000	-0.180549	0.180624	0.361174	-0.000043	-0.312764	0.312807
3.760000	-0.163408	0.167997	0.331405	-0.002649	-0.285681	0.288330
3.765000	-0.142424	0.155226	0.297650	-0.007391	-0.254077	0.261468
3.770000	-0.118230	0.143166	0.261396	-0.014397	-0.219177	0.233574
3.775000	-0.091888	0.131491	0.223379	-0.022865	-0.182019	0.204884
3.780000	-0.064430	0.120196	0.184625	-0.032196	-0.143792	0.175988
3.785000	-0.035985	0.111056	0.147041	-0.043342	-0.105670	0.149012
3.790000	-0.006426	0.104267	0.110693	-0.056489	-0.067619	0.124107
3.795000	0.023789	0.098252	0.074463	-0.070460	-0.029256	0.099716
3.800000	0.053833	0.092648	0.038815	-0.084571	0.008671	0.075900
3.805000	0.082563	0.087685	0.005122	-0.098293	0.044711	0.053582
3.810000	0.109259	0.083438	-0.025820	-0.111254	0.077988	0.033266
3.815000	0.134189	0.081187	-0.053002	-0.124347	0.108075	0.016272
3.820000	0.159435	0.082963	-0.076472	-0.139949	0.136201	0.003748
3.825000	0.187903	0.089331	-0.098572	-0.160061	0.165396	-0.005335
3.830000	0.220357	0.099691	-0.120666	-0.184780	0.196890	-0.012110
3.835000	0.255592	0.114285	-0.141308	-0.213548	0.229150	-0.015602
3.840000	0.293408	0.132030	-0.161378	-0.245626	0.262571	-0.016944
3.845000	0.334874	0.149357	-0.185517	-0.279571	0.300447	-0.020877
3.850000	0.382529	0.166980	-0.215549	-0.317259	0.345301	-0.028042
3.855000	0.440755	0.192168	-0.248587	-0.365418	0.397992	-0.032574
3.860000	0.513959	0.232918	-0.281041	-0.431210	0.458993	-0.027783
3.865000	0.601968	0.294660	-0.307308	-0.517668	0.524970	-0.007302
3.870000	0.700594	0.377825	-0.322769	-0.622625	0.590839	0.031786
3.875000	0.805035	0.475623	-0.329412	-0.739388	0.654973	0.084415
3.880000	0.908377	0.573916	-0.334461	-0.855802	0.717553	0.138250
3.885000	0.999199	0.652926	-0.346274	-0.953854	0.776809	0.177046
3.890000	1.065837	0.694075	-0.371762	-1.016085	0.829998	0.186087
3.895000	1.101168	0.684731	-0.416437	-1.031089	0.876189	0.154900
3.900000	1.104970	0.621698	-0.483272	-0.996892	0.916972	0.079920
3.905000	1.081751	0.513762	-0.567989	-0.921170	0.952477	-0.031308
3.910000	1.038593	0.378593	-0.660000	-0.818213	0.980683	-0.162470
3.915000	0.983577	0.237098	-0.746479	-0.704756	0.998848	-0.294091
3.920000	0.922745	0.105550	-0.817195	-0.593686	1.004554	-0.410868
3.925000	0.859723	-0.008698	-0.868421	-0.491339	0.997744	-0.506405
3.930000	0.797239	-0.100760	-0.897999	-0.402112	0.978746	-0.576634
3.935000	0.736657	-0.164529	-0.901186	-0.330318	0.945608	-0.615290
3.940000	0.677682	-0.197337	-0.875019	-0.277327	0.896452	-0.619125
3.945000	0.619261	-0.202694	-0.821955	-0.240505	0.832086	-0.591581
3.950000	0.560929	-0.187195	-0.748125	-0.215776	0.755782	-0.540007
3.955000	0.502572	-0.158162	-0.660734	-0.198845	0.671635	-0.472790
3.960000	0.445071	-0.123097	-0.568168	-0.185892	0.584993	-0.399101
3.965000	0.389125	-0.087064	-0.476189	-0.174395	0.499589	-0.325194
3.970000	0.335206	-0.053479	-0.388685	-0.162655	0.417939	-0.255284
3.975000	0.284037	-0.025747	-0.309784	-0.149124	0.342843	-0.193719
3.980000	0.236344	-0.005409	-0.241753	-0.133331	0.276030	-0.142699
3.985000	0.192695	0.008849	-0.183846	-0.116361	0.217396	-0.101034
3.990000	0.153261	0.019131	-0.134131	-0.099530	0.165926	-0.066395
3.995000	0.117725	0.027017	-0.090707	-0.083567	0.120338	-0.036771
4.000000	0.085096	0.033229	-0.051867	-0.068315	0.079076	-0.010761
4.005000	0.055437	0.037637	-0.017800	-0.053736	0.042284	0.011453
4.010000	0.028812	0.040098	0.011286	-0.039785	0.010118	0.029667
4.015000	0.004245	0.042220	0.037975	-0.026826	-0.019474	0.046300
4.020000	-0.018797	0.046163	0.064960	-0.015800	-0.048357	0.064157
4.025000	-0.040228	0.051804	0.092032	-0.006683	-0.076360	0.083043
4.030000	-0.061011	0.057676	0.118687	0.001925	-0.103748	0.101823
4.035000	-0.082181	0.063396	0.145577	0.010846	-0.131496	0.120650
4.040000	-0.103105	0.068622	0.171727	0.019908	-0.158674	0.138766
4.045000	-0.122138	0.072259	0.194397	0.028798	-0.182752	0.153954
4.050000	-0.137914	0.074899	0.212812	0.036382	-0.202492	0.166110
4.055000	-0.150403	0.077515	0.227918	0.042082	-0.218424	0.176341
4.060000	-0.160600	0.079707	0.240307	0.046703	-0.231464	0.184760
4.065000	-0.169573	0.080986	0.250559	0.051145	-0.242563	0.191418
4.070000	-0.177437	0.082174	0.259611	0.055000	-0.252330	0.197330
4.075000	-0.183598	0.084087	0.267684	0.057453	-0.260548	0.203095
4.080000	-0.187416	0.087409	0.274824	0.057739	-0.266874	0.209135
4.085000	-0.188190	0.092211	0.280401	0.055413	-0.270541	0.215128
4.090000	-0.185253	0.097181	0.282434	0.050848	-0.270019	0.219171
4.095000	-0.178712	0.100827	0.279539	0.044967	-0.264572	0.219604
4.100000	-0.169200	0.103746	0.272946	0.037790	-0.255273	0.217483
4.105000	-0.156712	0.107146	0.263858	0.028617	-0.242816	0.214199
4.110000	-0.141002	0.110619	0.251621	0.017542	-0.226681	0.209139
4.115000	-0.121698	0.113602	0.235300	0.004674	-0.206113	0.201439
4.120000	-0.098762	0.116056	0.214818	-0.009984	-0.181046	0.191030
4.125000	-0.073130	0.117331	0.190461	-0.025520	-0.152184	0.177704
4.130000	-0.046275	0.117523	0.163798	-0.041135	-0.121286	0.162420
4.135000	-0.020248	0.117897	0.138145	-0.056378	-0.091448	0.147826
4.140000	0.003583	0.119183	0.115600	-0.070879	-0.064673	0.135552
4.145000	0.025210	0.121706	0.096496	-0.084822	-0.041157	0.125979
4.150000	0.045259	0.126514	0.081254	-0.099173	-0.020781	0.119955
4.155000	0.064992	0.133289	0.068297	-0.114478	-0.001908	0.116386
4.160000	0.085549	0.139733	0.054185	-0.130067	0.018108	0.111959
4.165000	0.106637	0.143944	0.037307	-0.144673	0.040028	0.104646
4.170000	0.126782	0.146326	0.019543	-0.157679	0.061914	0.095765
4.175000	0.144898	0.148853	0.003955	-0.169597	0.081373	0.088223
4.180000	0.160516	0.154411	-0.006105	-0.181823	0.096199	0.085624
4.185000	0.173662	0.165103	-0.008559	-0.195586	0.105205	0.090381
4.190000	0.184303	0.180200	-0.004103	-0.210446	0.108776	0.101670
4.195000	0.193051	0.198450	0.005399	-0.226033	0.108341	0.117692
4.200000	0.202221	0.220778	0.018557	-0.244218	0.106038	0.138180
4.205000	0.214192	0.247802	0.033610	-0.266732	0.104259	0.162474
4.210000	0.231920	0.278955	0.047035	-0.294954	0.106743	0.188210
4.215000	0.258910	0.314516	0.055606	-0.331067	0.117377	0.213690
4.220000	0.296988	0.355549	0.058562	-0.376742	0.137655	0.239087
4.225000	0.346336	0.399675	0.053339	-0.430709	0.169162	0.261548
4.230000	0.406898	0.443173	0.036275	-0.490789	0.213979	0.276810
4.235000	0.477631	0.486753	0.009122	-0.556787	0.270494	0.286294
4.240000	0.554561	0.534264	-0.020297	-0.628633	0.331894	0.296739
4.245000	0.629218	0.588233	-0.040986	-0.702895	0.386942	0.315953
4.250000	0.691552	0.648905	-0.042647	-0.773913	0.423890	0.350022
4.255000	0.734473	0.712678	-0.021796	-0.835513	0.436632	0.398881
4.260000	0.756350	0.773908	0.017558	-0.883494	0.426542	0.456953
4.265000	0.760221	0.825306	0.065085	-0.915404	0.401337	0.514067
4.270000	0.750635	0.853985	0.103350	-0.926427	0.373710	0.552717
4.275000	0.731740	0.845338	0.113598	-0.910526	0.356884	0.553641
4.280000	0.706818	0.790553	0.083736	-0.864507	0.359736	0.504771
4.285000	0.677391	0.689464	0.012074	-0.789154	0.384121	0.405033
4.290000	0.642488	0.552038	-0.090450	-0.689659	0.423162	0.266498
4.295000	0.601301	0.395975	-0.205326	-0.575777	0.465706	0.110071
4.300000	0.554764	0.241626	-0.313139	-0.459796	0.501084	-0.041288
4.305000	0.505077	0.104527	-0.400550	-0.351955	0.522864	-0.170909
4.310000	0.454568	-0.004639	-0.459207	-0.259767	0.527568	-0.267802
4.315000	0.404997	-0.078803	-0.483800	-0.188328	0.513147	-0.324819
4.320000	0.357514	-0.117797	-0.475311	-0.138401	0.480832	-0.342431
4.325000	0.312769	-0.128796	-0.441565	-0.106216	0.435515	-0.329298
4.330000	0.271009	-0.121534	-0.392543	-0.086300	0.383102	-0.296802
4.335000	0.232045	-0.105140	-0.337186	-0.073269	0.328645	-0.255377
4.340000	0.195591	-0.086474	-0.282065	-0.062999	0.275775	-0.212776
4.345000	0.162270	-0.069469	-0.231740	-0.053579	0.227482	-0.173903
4.350000	0.133077	-0.055830	-0.188907	-0.044598	0.185897	-0.141299
4.355000	0.108156	-0.046573	-0.154729	-0.035555	0.151777	-0.116222
4.360000	0.086060	-0.042978	-0.129038	-0.024873	0.124187	-0.099314
4.365000	0.065173	-0.044312	-0.109485	-0.012044	0.100839	-0.088794
4.370000	0.045366	-0.047792	-0.093157	0.001401	0.079976	-0.081377
4.375000	0.027342	-0.052309	-0.079652	0.014415	0.061773	-0.076188
4.380000	0.011815	-0.057772	-0.069587	0.026534	0.046998	-0.073531
4.385000	-0.001762	-0.063207	-0.061445	0.037510	0.034458	-0.071968
4.390000	-0.014224	-0.068220	-0.053996	0.047599	0.022963	-0.070561
4.395000	-0.025586	-0.073383	-0.047797	0.057140	0.012823	-0.069963
4.400000	-0.035906	-0.078100	-0.042194	0.065821	0.003630	-0.069451
4.405000	-0.045053	-0.081887	-0.036834	0.073289	-0.004745	-0.068543
4.410000	-0.052106	-0.085394	-0.033288	0.079386	-0.010865	-0.068521
4.415000	-0.055909	-0.089343	-0.033434	0.083861	-0.012976	-0.070886
4.420000	-0.056289	-0.093621	-0.037332	0.086550	-0.010945	-0.075606
4.425000	-0.054063	-0.097938	-0.043875	0.087758	-0.005882	-0.081876
4.430000	-0.050533	-0.100797	-0.050264	0.087371	-0.000155	-0.087215
4.435000	-0.046278	-0.100910	-0.054632	0.084979	0.004823	-0.089802
4.440000	-0.040525	-0.098941	-0.058416	0.080520	0.010330	-0.090850
4.445000	-0.032843	-0.096334	-0.063490	0.074580	0.017694	-0.092274
4.450000	-0.023743	-0.093389	-0.069646	0.067626	0.026502	-0.094128
4.455000	-0.013681	-0.089241	-0.075560	0.059422	0.035726	-0.095148
4.460000	-0.002094	-0.082911	-0.080817	0.049077	0.045451	-0.094528
4.465000	0.011843	-0.073331	-0.085174	0.035500	0.056012	-0.091512
4.470000	0.027897	-0.059919	-0.087815	0.018488	0.066806	-0.085294
4.475000	0.044906	-0.043617	-0.088523	-0.000744	0.077035	-0.076291
4.480000	0.061632	-0.025966	-0.087598	-0.020592	0.086158	-0.065566
4.485000	0.077742	-0.007281	-0.085023	-0.040681	0.093973	-0.053292
4.490000	0.092989	0.012033	-0.080956	-0.060635	0.100427	-0.039792
4.495000	0.107308	0.030990	-0.076318	-0.079846	0.106016	-0.026170
4.500000	0.120866	0.049422	-0.071444	-0.098315	0.111030	-0.012715
4.505000	0.133598	0.067146	-0.066451	-0.115900	0.115498	0.000401
4.510000	0.144910	0.082858	-0.062051	-0.131502	0.119489	0.012013
4.515000	0.154436	0.096557	-0.057879	-0.144911	0.122580	0.022331
4.520000	0.162436	0.109588	-0.052848	-0.157053	0.124294	0.032759
4.525000	0.169104	0.122326	-0.046778	-0.168257	0.124640	0.043617
4.530000	0.175337	0.135718	-0.039619	-0.179587	0.124105	0.055482
4.535000	0.184341	0.151545	-0.032795	-0.193924	0.125364	0.068560
4.540000	0.200007	0.169701	-0.030306	-0.213451	0.132971	0.080480
4.545000	0.223353	0.188754	-0.034599	-0.237930	0.148929	0.089001
4.550000	0.252922	0.208435	-0.044487	-0.266364	0.171709	0.094656
4.555000	0.287938	0.229652	-0.058286	-0.298830	0.199892	0.098938
4.560000	0.328748	0.251568	-0.077180	-0.335046	0.234362	0.100683
4.565000	0.377577	0.273854	-0.103723	-0.376104	0.277879	0.098225
4.570000	0.438517	0.297437	-0.141081	-0.424903	0.334631	0.090272
4.575000	0.514905	0.321143	-0.193761	-0.482692	0.409148	0.073544
4.580000	0.605473	0.342519	-0.262954	-0.547323	0.501387	0.045936
4.585000	0.705630	0.359836	-0.345794	-0.615147	0.607040	0.008107
4.590000	0.810321	0.371347	-0.438974	-0.682236	0.721280	-0.039044
4.595000	0.911886	0.374733	-0.537153	-0.742830	0.836603	-0.093773
4.600000	0.998503	0.368151	-0.630352	-0.789038	0.940419	-0.151382
4.605000	1.059048	0.350010	-0.709038	-0.813519	1.020805	-0.207285
4.610000	1.087653	0.321337	-0.766316	-0.813480	1.070389	-0.256909
4.615000	1.085294	0.290030	-0.795263	-0.794043	1.085739	-0.291696
4.620000	1.057065	0.268152	-0.788913	-0.765114	1.065775	-0.300661
4.625000	1.010646	0.265556	-0.745090	-0.736815	1.013674	-0.276859
4.630000	0.954162	0.287172	-0.666989	-0.716684	0.935972	-0.219287
4.635000	0.892933	0.332920	-0.560013	-0.707746	0.838858	-0.131112
4.640000	0.830085	0.396423	-0.433662	-0.708124	0.729625	-0.021500
4.645000	0.768211	0.465347	-0.302863	-0.712195	0.618385	0.093810
4.650000	0.708243	0.520858	-0.187386	-0.709621	0.517092	0.192530
4.655000	0.649501	0.542534	-0.106967	-0.688222	0.436747	0.251475
4.660000	0.591344	0.516865	-0.074479	-0.639825	0.384413	0.255412
4.665000	0.533596	0.441617	-0.091979	-0.563039	0.361175	0.201864
4.670000	0.475856	0.329101	-0.146755	-0.464742	0.359464	0.105278
4.675000	0.418792	0.201742	-0.217050	-0.358265	0.367103	-0.008838
4.680000	0.363307	0.082063	-0.281244	-0.257135	0.372131	-0.114997
4.685000	0.309869	-0.014864	-0.324733	-0.170321	0.366388	-0.196067
4.690000	0.258999	-0.083929	-0.342929	-0.101077	0.347523	-0.246447
4.695000	0.211515	-0.124979	-0.336494	-0.049961	0.316393	-0.266432
4.700000	0.168093	-0.139885	-0.307978	-0.016286	0.274860	-0.258574
4.705000	0.129042	-0.134567	-0.263609	0.003190	0.226697	-0.229887
4.710000	0.093944	-0.117439	-0.211383	0.013565	0.176280	-0.189845
4.715000	0.061753	-0.096476	-0.158229	0.020047	0.127007	-0.147054
4.720000	0.032461	-0.077020	-0.109481	0.025726	0.081950	-0.107676
4.725000	0.005917	-0.061726	-0.067643	0.032221	0.042470	-0.074691
4.730000	-0.018578	-0.051335	-0.032758	0.040364	0.008187	-0.048551
4.735000	-0.041400	-0.044751	-0.003352	0.049739	-0.021967	-0.027772
4.740000	-0.062762	-0.041624	0.021139	0.060267	-0.048440	-0.011827
4.745000	-0.083781	-0.042003	0.041778	0.072622	-0.072492	-0.000130
4.750000	-0.105148	-0.044490	0.060658	0.086394	-0.095728	0.009334
4.755000	-0.125995	-0.048155	0.077840	0.100545	-0.117684	0.017139
4.760000	-0.144613	-0.053219	0.091394	0.114218	-0.136259	0.022040
4.765000	-0.159719	-0.059410	0.100309	0.126514	-0.150127	0.023613
4.770000	-0.171600	-0.065957	0.105643	0.137154	-0.160066	0.022912
4.775000	-0.181525	-0.072770	0.108754	0.146817	-0.167593	0.020776
4.780000	-0.190290	-0.080253	0.110037	0.156198	-0.173394	0.017196
4.785000	-0.197865	-0.087532	0.110333	0.164774	-0.177938	0.013164
4.790000	-0.203712	-0.093857	0.109854	0.171802	-0.181038	0.009236
4.795000	-0.207064	-0.099984	0.107080	0.177274	-0.181371	0.004097
4.800000	-0.207146	-0.105457	0.101689	0.180482	-0.178306	-0.002175
4.805000	-0.203463	-0.109656	0.093807	0.180779	-0.171629	-0.009151
4.810000	-0.196340	-0.113380	0.082960	0.178816	-0.161253	-0.017563
4.815000	-0.186289	-0.116500	0.069788	0.174815	-0.147846	-0.026969
4.820000	-0.173259	-0.117778	0.055482	0.168030	-0.132064	-0.035967
4.825000	-0.157052	-0.116881	0.040171	0.158155	-0.113867	-0.044288
4.830000	-0.137156	-0.114043	0.023113	0.145030	-0.092532	-0.052499
4.835000	-0.113662	-0.108749	0.004913	0.128409	-0.068460	-0.059949
4.840000	-0.087750	-0.101278	-0.013528	0.109135	-0.042852	-0.066283
4.845000	-0.060954	-0.092644	-0.031690	0.088680	-0.016895	-0.071785
4.850000	-0.035317	-0.082870	-0.047553	0.068235	0.007065	-0.075300
4.855000	-0.011969	-0.071318	-0.059349	0.048086	0.027354	-0.075441
4.860000	0.008988	-0.057190	-0.066177	0.027830	0.043397	-0.071226
4.865000	0.028470	-0.039096	-0.067566	0.006135	0.055446	-0.061581
4.870000	0.047966	-0.017858	-0.065824	-0.017383	0.065697	-0.048313
4.875000	0.068338	0.003436	-0.064902	-0.041439	0.076926	-0.035487
4.880000	0.089058	0.022441	-0.066618	-0.064374	0.089880	-0.025506
4.885000	0.109000	0.039054	-0.069946	-0.085479	0.103315	-0.017835
4.890000	0.129603	0.053667	-0.075936	-0.105811	0.118668	-0.012857
4.895000	0.154823	0.066965	-0.087858	-0.128049	0.140112	-0.012063
4.900000	0.188232	0.080812	-0.107420	-0.155333	0.170695	-0.015362
4.905000	0.231000	0.096187	-0.134813	-0.188902	0.211202	-0.022301
4.910000	0.282231	0.111576	-0.170655	-0.227365	0.261474	-0.034109
4.915000	0.340448	0.125961	-0.214487	-0.269281	0.320391	-0.051110
4.920000	0.404809	0.139225	-0.265585	-0.314098	0.387052	-0.072954
4.925000	0.476850	0.150744	-0.326106	-0.362341	0.463587	-0.101246
4.930000	0.560286	0.159971	-0.400315	-0.415840	0.554603	-0.138763
4.935000	0.656577	0.166185	-0.490393	-0.475022	0.662203	-0.187181
4.940000	0.762344	0.166784	-0.595560	-0.536432	0.783986	-0.247554
4.945000	0.872001	0.158977	-0.713023	-0.595235	0.915114	-0.319879
4.950000	0.979294	0.142065	-0.837229	-0.647417	1.048770	-0.401353
4.955000	1.074498	0.117070	-0.957428	-0.687952	1.173132	-0.485181
4.960000	1.145508	0.085278	-1.060230	-0.710594	1.273483	-0.562889
4.965000	1.182405	0.049658	-1.132747	-0.711331	1.336653	-0.625322
4.970000	1.181765	0.014189	-1.167576	-0.690484	1.356392	-0.665908
4.975000	1.147895	-0.018986	-1.166881	-0.651775	1.336436	-0.684661
4.980000	1.089253	-0.049233	-1.138487	-0.600456	1.286186	-0.685730
4.985000	1.015941	-0.076340	-1.092282	-0.542479	1.217183	-0.674704
4.990000	0.937620	-0.100219	-1.037839	-0.483473	1.140531	-0.657058
4.995000	0.860493	-0.117951	-0.978444	-0.428706	1.061710	-0.633004
5.000000	0.787102	-0.121478	-0.908580	-0.384298	0.979002	-0.594704
5.005000	0.718209	-0.101896	-0.820105	-0.355828	0.888145	-0.532317
5.010000	0.653385	-0.056041	-0.709425	-0.344877	0.786818	-0.441942
5.015000	0.591038	0.013488	-0.577549	-0.349023	0.674684	-0.325661
5.020000	0.530411	0.099633	-0.430778	-0.363756	0.554943	-0.191186
5.025000	0.471667	0.192429	-0.279239	-0.383416	0.433536	-0.050120
5.030000	0.414321	0.280177	-0.134144	-0.400968	0.316657	0.084312
5.035000	0.358461	0.346474	-0.011987	-0.406994	0.213878	0.193116
5.040000	0.304992	0.376091	0.071099	-0.393224	0.135038	0.258185
5.045000	0.254733	0.362844	0.108111	-0.356558	0.084652	0.271906
5.050000	0.207915	0.308996	0.101081	-0.298439	0.061681	0.236758
5.055000	0.165023	0.225017	0.059994	-0.225190	0.060638	0.164551
5.060000	0.127041	0.128719	0.001678	-0.147663	0.072378	0.075284
5.065000	0.094348	0.040183	-0.054165	-0.077672	0.085744	-0.008072
5.070000	0.065563	-0.025530	-0.091093	-0.023113	0.090445	-0.067332
5.075000	0.038961	-0.062800	-0.101761	0.013763	0.081246	-0.095009
5.080000	0.013483	-0.072308	-0.085791	0.033962	0.057316	-0.091278
5.085000	-0.011523	-0.059283	-0.047761	0.040880	0.020922	-0.061802
5.090000	-0.036077	-0.034110	0.001967	0.040522	-0.021965	-0.018558
5.095000	-0.059998	-0.006779	0.053219	0.038554	-0.065366	0.026812
5.100000	-0.083273	0.017263	0.100536	0.038111	-0.106122	0.068011
5.105000	-0.105811	0.034825	0.140636	0.040984	-0.142286	0.101302
5.110000	-0.127632	0.043176	0.170809	0.048761	-0.172305	0.123544
5.115000	-0.148565	0.041952	0.190517	0.061553	-0.195769	0.134216
5.120000	-0.168084	0.034370	0.202454	0.077200	-0.213930	0.136730
5.125000	-0.186901	0.023352	0.210253	0.094425	-0.229297	0.134872
5.130000	-0.205244	0.011222	0.216467	0.112018	-0.243475	0.131456
5.135000	-0.222365	0.000275	0.222640	0.128224	-0.256924	0.128700
5.140000	-0.237338	-0.009116	0.228222	0.142290	-0.268791	0.126501
5.145000	-0.249198	-0.017850	0.231347	0.154180	-0.277443	0.123263
5.150000	-0.257421	-0.026427	0.230994	0.163879	-0.281986	0.118107
5.155000	-0.261737	-0.035956	0.225781	0.171873	-0.281468	0.109595
5.160000	-0.262048	-0.047821	0.214227	0.178903	-0.274978	0.096075
5.165000	-0.259339	-0.061383	0.197956	0.185169	-0.264019	0.078850
5.170000	-0.254810	-0.074746	0.180064	0.190270	-0.251075	0.060805
5.175000	-0.247899	-0.087686	0.160213	0.193750	-0.235624	0.041873
5.180000	-0.237136	-0.100713	0.136423	0.195058	-0.215675	0.020617
5.185000	-0.222324	-0.112731	0.109594	0.193444	-0.191633	-0.001811
5.190000	-0.203816	-0.122687	0.081129	0.188506	-0.164513	-0.023994
5.195000	-0.181624	-0.130428	0.051195	0.180163	-0.134418	-0.045745
5.200000	-0.156517	-0.135391	0.021126	0.168533	-0.102562	-0.065971
5.205000	-0.129721	-0.137747	-0.008026	0.154422	-0.070260	-0.084162
5.210000	-0.101955	-0.138324	-0.036369	0.138725	-0.037866	-0.100859
5.215000	-0.073108	-0.136699	-0.063590	0.121132	-0.005495	-0.115637
5.220000	-0.043738	-0.132652	-0.088914	0.101839	0.026082	-0.127921
5.225000	-0.014335	-0.126836	-0.112501	0.081505	0.056676	-0.138181
5.230000	0.014705	-0.119284	-0.133989	0.060378	0.085849	-0.146227
5.235000	0.042412	-0.109047	-0.151458	0.038472	0.111931	-0.150403
5.240000	0.067167	-0.096075	-0.163242	0.016690	0.133026	-0.149717
5.245000	0.082990	-0.083173	-0.166163	0.000105	0.143849	-0.143954
5.250000	0.078564	-0.074864	-0.153428	-0.002136	0.133941	-0.131804
5.255000	0.044834	-0.074470	-0.119304	0.017110	0.094765	-0.111875
5.260000	-0.019395	-0.081899	-0.062504	0.058482	0.024889	-0.083371
5.265000	-0.109010	-0.093116	0.015894	0.116698	-0.072114	-0.044584
5.270000	-0.216520	-0.103715	0.112804	0.184888	-0.190135	0.005247
5.275000	-0.334511	-0.111139	0.223373	0.257296	-0.322094	0.064798
5.280000	-0.457502	-0.112824	0.344678	0.329278	-0.463139	0.133861
5.285000	-0.581230	-0.105374	0.475856	0.396410	-0.610308	0.213898
5.290000	-0.694535	-0.087509	0.607026	0.451513	-0.751456	0.299943
5.295000	-0.779290	-0.061174	0.718116	0.485242	-0.864527	0.379285
5.300000	-0.820400	-0.029627	0.790773	0.490763	-0.930211	0.439447
5.305000	-0.812829	0.003035	0.815864	0.467534	-0.940326	0.472791
5.310000	-0.763175	0.031751	0.794926	0.422288	-0.899570	0.477282
5.315000	-0.685393	0.053583	0.738976	0.364776	-0.822360	0.457584
5.320000	-0.593934	0.067457	0.661391	0.303962	-0.724762	0.420800
5.325000	-0.499538	0.072541	0.572080	0.246527	-0.618699	0.372172
5.330000	-0.408413	0.069155	0.477568	0.195871	-0.511521	0.315650
5.335000	-0.322179	0.059537	0.381716	0.151636	-0.406394	0.254758
5.340000	-0.240157	0.045792	0.285949	0.112217	-0.303747	0.191531
5.345000	-0.161251	0.029604	0.190855	0.076006	-0.203288	0.127282
5.350000	-0.085179	0.015263	0.100441	0.040366	-0.107168	0.066802
5.355000	-0.012440	0.009926	0.022366	0.001451	-0.020095	0.018644
5.360000	0.055761	0.019118	-0.036643	-0.043231	0.053349	-0.010118
5.365000	0.117042	0.046482	-0.070560	-0.094411	0.108312	-0.013901
5.370000	0.169302	0.091983	-0.077319	-0.150853	0.142387	0.008466
5.375000	0.212924	0.148366	-0.064558	-0.208591	0.160204	0.048387
5.380000	0.249630	0.206042	-0.043588	-0.263083	0.169290	0.093793
5.385000	0.281993	0.255177	-0.026816	-0.310135	0.178291	0.131844
5.390000	0.312565	0.283549	-0.029016	-0.344166	0.197211	0.146955
5.395000	0.342299	0.280886	-0.061412	-0.359796	0.233083	0.126713
5.400000	0.370629	0.244050	-0.126578	-0.354885	0.287062	0.067822
5.405000	0.397839	0.176408	-0.221431	-0.331541	0.357535	-0.025994
5.410000	0.424469	0.088566	-0.335903	-0.296201	0.439001	-0.142800
5.415000	0.450095	-0.000878	-0.450974	-0.259356	0.520232	-0.260877
5.420000	0.473737	-0.073387	-0.547124	-0.231143	0.589394	-0.358252
5.425000	0.494450	-0.118678	-0.613128	-0.216952	0.639460	-0.422509
5.430000	0.512016	-0.133440	-0.645455	-0.218571	0.668266	-0.449695
5.435000	0.526700	-0.118616	-0.645317	-0.235607	0.676664	-0.441057
5.440000	0.538619	-0.082826	-0.621445	-0.263152	0.669763	-0.406611
5.445000	0.547219	-0.040222	-0.587441	-0.292715	0.655096	-0.362381
5.450000	0.551496	-0.002801	-0.554297	-0.316789	0.638429	-0.321640
5.455000	0.550983	0.022966	-0.528017	-0.331370	0.622961	-0.291591
5.460000	0.544902	0.034905	-0.509997	-0.334751	0.609046	-0.274295
5.465000	0.531658	0.034886	-0.496772	-0.327094	0.593764	-0.266670
5.470000	0.509983	0.027751	-0.482232	-0.310461	0.572856	-0.262395
5.475000	0.479642	0.017844	-0.461798	-0.287224	0.543541	-0.256317
5.480000	0.441902	0.007447	-0.434455	-0.259432	0.505965	-0.246533
5.485000	0.398680	-0.002928	-0.401608	-0.228487	0.462046	-0.233559
5.490000	0.352932	-0.014483	-0.367416	-0.195404	0.415893	-0.220489
5.495000	0.308506	-0.028864	-0.337370	-0.161451	0.372896	-0.211445
5.500000	0.266957	-0.046357	-0.313313	-0.127363	0.335019	-0.207655
5.505000	0.225550	-0.069255	-0.294805	-0.090237	0.300427	-0.210190
5.510000	0.178769	-0.102344	-0.281113	-0.044124	0.265513	-0.221389
5.515000	0.121929	-0.147514	-0.269443	0.014771	0.225958	-0.240730
5.520000	0.053329	-0.201703	-0.255032	0.085664	0.178032	-0.263696
5.525000	-0.026991	-0.260481	-0.233490	0.165972	0.119222	-0.285194
5.530000	-0.118131	-0.318724	-0.200594	0.252218	0.047610	-0.299828
5.535000	-0.219160	-0.370594	-0.151434	0.340495	-0.039102	-0.301393
5.540000	-0.329839	-0.412858	-0.083019	0.428796	-0.142501	-0.286295
5.545000	-0.446281	-0.443953	0.002328	0.513977	-0.259004	-0.254972
5.550000	-0.555234	-0.460254	0.094980	0.586292	-0.375401	-0.210891
5.555000	-0.639316	-0.458987	0.180329	0.634105	-0.473222	-0.160883
5.560000	-0.685256	-0.441768	0.243488	0.650687	-0.536210	-0.114477
5.565000	-0.688893	-0.412613	0.276280	0.635955	-0.557243	-0.078712
5.570000	-0.656240	-0.376215	0.280025	0.596087	-0.540552	-0.055535
5.575000	-0.598396	-0.337848	0.260548	0.540541	-0.495911	-0.044629
5.580000	-0.526866	-0.302110	0.224756	0.478609	-0.433949	-0.044661
5.585000	-0.450128	-0.271745	0.178383	0.416773	-0.362871	-0.053902
5.590000	-0.372553	-0.247614	0.124938	0.358054	-0.287226	-0.070827
5.595000	-0.295802	-0.228083	0.067719	0.302465	-0.209879	-0.092586
5.600000	-0.219781	-0.209628	0.010154	0.247919	-0.132753	-0.115166
5.605000	-0.143568	-0.189973	-0.046405	0.192570	-0.056097	-0.136473
5.610000	-0.066582	-0.170666	-0.104083	0.136975	0.021651	-0.158626
5.615000	0.010394	-0.154257	-0.164651	0.083060	0.101062	-0.184122
5.620000	0.083948	-0.141303	-0.225251	0.033114	0.178516	-0.211630
5.625000	0.150020	-0.131942	-0.281962	-0.010437	0.249405	-0.238967
5.630000	0.206874	-0.125333	-0.332207	-0.047077	0.311238	-0.264161
5.635000	0.254922	-0.118920	-0.373842	-0.078521	0.363017	-0.284496
5.640000	0.295390	-0.111481	-0.406871	-0.106180	0.405450	-0.299270
5.645000	0.330031	-0.103811	-0.433842	-0.130608	0.441022	-0.310414
5.650000	0.360950	-0.095591	-0.456542	-0.153205	0.471979	-0.318774
5.655000	0.389220	-0.086429	-0.475649	-0.174816	0.499332	-0.324516
5.660000	0.414884	-0.076965	-0.491850	-0.195098	0.523503	-0.328405
5.665000	0.437749	-0.067500	-0.505249	-0.213763	0.544440	-0.330676
5.670000	0.457943	-0.057483	-0.515425	-0.231206	0.561974	-0.330768
5.675000	0.475429	-0.047265	-0.522694	-0.247200	0.576266	-0.329066
5.680000	0.490152	-0.038584	-0.528736	-0.260712	0.588255	-0.327543
5.685000	0.501839	-0.031954	-0.533794	-0.271288	0.597923	-0.326634
5.690000	0.510380	-0.027644	-0.538024	-0.278707	0.605296	-0.326588
5.695000	0.515956	-0.025272	-0.541229	-0.283296	0.610366	-0.327070
5.700000	0.518366	-0.022635	-0.541000	-0.286210	0.611625	-0.325415
5.705000	0.517044	-0.017143	-0.534187	-0.288618	0.606928	-0.318310
5.710000	0.511713	-0.005331	-0.517044	-0.292360	0.593953	-0.301593
5.715000	0.502279	0.017906	-0.484374	-0.300329	0.569644	-0.269315
5.720000	0.488254	0.056349	-0.431905	-0.314427	0.531254	-0.216827
5.725000	0.468102	0.108292	-0.359810	-0.332781	0.477995	-0.145214
5.730000	0.440775	0.166995	-0.273780	-0.350896	0.412548	-0.061652
5.735000	0.406985	0.222968	-0.184018	-0.363703	0.341216	0.022488
5.740000	0.368968	0.265965	-0.103003	-0.366579	0.272493	0.094086
5.745000	0.329506	0.286322	-0.043185	-0.355548	0.215173	0.140375
5.750000	0.291615	0.277141	-0.014473	-0.328371	0.176720	0.151651
5.755000	0.257975	0.237271	-0.020704	-0.285931	0.160896	0.125035
5.760000	0.230233	0.169614	-0.060619	-0.230851	0.167923	0.062928
5.765000	0.208199	0.078088	-0.130111	-0.165288	0.195323	-0.030036
5.770000	0.189540	-0.028823	-0.218363	-0.092790	0.235503	-0.142713
5.775000	0.170435	-0.137630	-0.308065	-0.018940	0.276262	-0.257322
5.780000	0.147455	-0.235026	-0.382482	0.050559	0.305959	-0.356518
5.785000	0.116783	-0.311424	-0.428207	0.112376	0.314650	-0.427026
5.790000	0.074461	-0.361781	-0.436242	0.165885	0.294854	-0.460739
5.795000	0.017400	-0.388135	-0.405535	0.214043	0.244182	-0.458225
5.800000	-0.055699	-0.400667	-0.344968	0.263482	0.167010	-0.430492
5.805000	-0.140107	-0.410381	-0.270274	0.317824	0.075152	-0.392976
5.810000	-0.224304	-0.420757	-0.196453	0.372426	-0.016079	-0.356346
5.815000	-0.295145	-0.427974	-0.132829	0.417493	-0.093713	-0.323780
5.820000	-0.342887	-0.426910	-0.084024	0.444442	-0.149454	-0.294988
5.825000	-0.364028	-0.415999	-0.051970	0.450348	-0.180166	-0.270182
5.830000	-0.360768	-0.396487	-0.035719	0.437201	-0.187667	-0.249534
5.835000	-0.338089	-0.370148	-0.032060	0.408901	-0.176686	-0.232215
5.840000	-0.301829	-0.339994	-0.038165	0.370556	-0.152227	-0.218330
5.845000	-0.257397	-0.310053	-0.052656	0.327617	-0.118208	-0.209410
5.850000	-0.208654	-0.282289	-0.073635	0.283446	-0.077953	-0.205493
5.855000	-0.158026	-0.256983	-0.098957	0.239605	-0.034104	-0.205501
5.860000	-0.105864	-0.234337	-0.128473	0.196415	0.013054	-0.209468
5.865000	-0.051389	-0.213797	-0.162408	0.153105	0.064097	-0.217202
5.870000	0.006235	-0.195144	-0.201379	0.109066	0.119866	-0.228933
5.875000	0.066045	-0.179805	-0.245850	0.065680	0.180072	-0.245752
5.880000	0.123786	-0.168946	-0.292733	0.026073	0.240477	-0.266551
5.885000	0.175166	-0.161602	-0.336768	-0.007831	0.295565	-0.287734
5.890000	0.218771	-0.157094	-0.375865	-0.035610	0.343313	-0.307704
5.895000	0.255829	-0.155495	-0.411324	-0.057928	0.385180	-0.327253
5.900000	0.287831	-0.155708	-0.443538	-0.076281	0.422256	-0.345975
5.905000	0.315912	-0.155740	-0.471652	-0.092476	0.454700	-0.362224
5.910000	0.340608	-0.154572	-0.495180	-0.107408	0.482542	-0.375134
5.915000	0.361640	-0.152061	-0.513701	-0.121001	0.505378	-0.384377
5.920000	0.378908	-0.147472	-0.526380	-0.133620	0.522668	-0.389048
5.925000	0.393151	-0.141372	-0.534523	-0.145365	0.535593	-0.390228
5.930000	0.404474	-0.134729	-0.539203	-0.155737	0.544832	-0.389094
5.935000	0.412175	-0.127690	-0.539865	-0.164247	0.549661	-0.385413
5.940000	0.416268	-0.121032	-0.537300	-0.170455	0.550543	-0.380088
5.945000	0.417117	-0.115283	-0.532400	-0.174264	0.548204	-0.373940
5.950000	0.414919	-0.109109	-0.524029	-0.176559	0.542102	-0.365542
5.955000	0.409804	-0.100292	-0.510096	-0.178697	0.531105	-0.352408
5.960000	0.401867	-0.088524	-0.490391	-0.180908	0.515145	-0.334237
5.965000	0.390576	-0.074617	-0.465192	-0.182419	0.494078	-0.311659
5.970000	0.375232	-0.060306	-0.435538	-0.181822	0.468098	-0.286276
5.975000	0.355821	-0.048884	-0.404705	-0.177210	0.439090	-0.261880
5.980000	0.332917	-0.042611	-0.375527	-0.167608	0.409020	-0.241412
5.985000	0.307385	-0.042107	-0.349491	-0.153158	0.379247	-0.226089
5.990000	0.280476	-0.047445	-0.327920	-0.134540	0.351258	-0.216717
5.995000	0.254330	-0.058076	-0.312406	-0.113307	0.327205	-0.213898
6.000000	0.231262	-0.071938	-0.303200	-0.091985	0.308571	-0.216586
6.005000	0.212616	-0.087098	-0.299714	-0.072468	0.295794	-0.223326
6.010000	0.198925	-0.103391	-0.302316	-0.055157	0.289392	-0.234235
6.015000	0.189685	-0.122422	-0.312107	-0.038834	0.289710	-0.250875
6.020000	0.183054	-0.147861	-0.330915	-0.020318	0.296740	-0.276421
6.025000	0.175553	-0.184246	-0.359800	0.005019	0.309086	-0.314105
6.030000	0.163261	-0.232940	-0.396201	0.040229	0.323005	-0.363235
6.035000	0.143192	-0.291599	-0.434791	0.085683	0.333698	-0.419381
6.040000	0.112337	-0.356927	-0.469263	0.141214	0.335787	-0.477001
6.045000	0.067821	-0.425207	-0.493028	0.206336	0.323806	-0.530143
6.050000	0.007195	-0.492150	-0.499346	0.279989	0.292451	-0.572440
6.055000	-0.069545	-0.553681	-0.484136	0.359819	0.239364	-0.599184
6.060000	-0.155548	-0.602764	-0.447216	0.437812	0.168395	-0.606206
6.065000	-0.238125	-0.626191	-0.388066	0.499013	0.086568	-0.585581
6.070000	-0.304423	-0.612306	-0.307883	0.529274	0.001998	-0.531272
6.075000	-0.345830	-0.560676	-0.214845	0.523371	-0.075624	-0.447747
6.080000	-0.360593	-0.481166	-0.120574	0.485990	-0.138575	-0.347415
6.085000	-0.352028	-0.387867	-0.035839	0.427179	-0.182552	-0.244627
6.090000	-0.325307	-0.297020	0.028287	0.359300	-0.204147	-0.155153
6.095000	-0.286307	-0.222627	0.063680	0.293833	-0.202065	-0.091768
6.100000	-0.240430	-0.173403	0.067027	0.238927	-0.177510	-0.061416
6.105000	-0.191210	-0.151478	0.039732	0.197851	-0.133334	-0.064517
6.110000	-0.140381	-0.152306	-0.011925	0.168983	-0.074164	-0.094818
6.115000	-0.087981	-0.166484	-0.078502	0.146915	-0.005473	-0.141443
6.120000	-0.033259	-0.183009	-0.149750	0.124862	0.067256	-0.192118
6.125000	0.024758	-0.191295	-0.216053	0.096151	0.139032	-0.235182
6.130000	0.084286	-0.183903	-0.268189	0.057514	0.203502	-0.261016
6.135000	0.140593	-0.157987	-0.298580	0.010042	0.253557	-0.263599
6.140000	0.190079	-0.114714	-0.304793	-0.043512	0.285714	-0.242202
6.145000	0.232136	-0.056526	-0.288662	-0.101388	0.300683	-0.199294
6.150000	0.268052	0.012206	-0.255847	-0.161807	0.302473	-0.140666
6.155000	0.299252	0.080528	-0.218724	-0.219266	0.299053	-0.079788
6.160000	0.326659	0.134695	-0.191964	-0.266363	0.299427	-0.033064
6.165000	0.350448	0.166294	-0.184154	-0.298341	0.308653	-0.010312
6.170000	0.370332	0.174782	-0.195550	-0.314721	0.326712	-0.011990
6.175000	0.386634	0.164877	-0.221757	-0.318415	0.351255	-0.032839
6.180000	0.400106	0.143419	-0.256687	-0.313804	0.379199	-0.065395
6.185000	0.410469	0.118484	-0.291985	-0.305391	0.405562	-0.100171
6.190000	0.417236	0.096531	-0.320706	-0.296623	0.426051	-0.129427
6.195000	0.420601	0.080307	-0.340294	-0.289199	0.439303	-0.150104
6.200000	0.420598	0.070186	-0.350412	-0.283354	0.445142	-0.161789
6.205000	0.417608	0.064134	-0.353473	-0.278134	0.445183	-0.167050
6.210000	0.412579	0.059429	-0.353150	-0.272514	0.442094	-0.169580
6.215000	0.405830	0.054826	-0.351004	-0.265960	0.436958	-0.170998
6.220000	0.396827	0.049444	-0.347383	-0.257654	0.429670	-0.172016
6.225000	0.384559	0.041572	-0.342987	-0.246026	0.420048	-0.174022
6.230000	0.368355	0.030157	-0.338198	-0.230081	0.407928	-0.177847
6.235000	0.348029	0.015393	-0.332636	-0.209822	0.392982	-0.183160
6.240000	0.324210	-0.003722	-0.327932	-0.185034	0.376515	-0.191480
6.245000	0.297999	-0.028855	-0.326854	-0.155391	0.360759	-0.205369
6.250000	0.270849	-0.059034	-0.329882	-0.122291	0.346832	-0.224540
6.255000	0.245288	-0.092690	-0.337978	-0.088103	0.336749	-0.248646
6.260000	0.223796	-0.129003	-0.352799	-0.054728	0.332897	-0.278169
6.265000	0.207313	-0.165899	-0.373213	-0.023910	0.335166	-0.311256
6.270000	0.194343	-0.201953	-0.396296	0.004394	0.341006	-0.345399
6.275000	0.179496	-0.239515	-0.419012	0.034652	0.345549	-0.380200
6.280000	0.154782	-0.282507	-0.437289	0.073742	0.341833	-0.415574
6.285000	0.114177	-0.332395	-0.446572	0.125988	0.323749	-0.449737
6.290000	0.056116	-0.388146	-0.444262	0.191698	0.288893	-0.480591
6.295000	-0.018369	-0.447453	-0.429084	0.268943	0.237126	-0.506068
6.300000	-0.107039	-0.505411	-0.398372	0.353598	0.168201	-0.521799
6.305000	-0.207664	-0.556480	-0.348815	0.441178	0.081494	-0.522672
6.310000	-0.318931	-0.597265	-0.278334	0.528966	-0.023438	-0.505527
6.315000	-0.435691	-0.624137	-0.188446	0.611892	-0.142747	-0.469145
6.320000	-0.543442	-0.632608	-0.089166	0.678993	-0.262276	-0.416716
6.325000	-0.624519	-0.620353	0.004167	0.718727	-0.362972	-0.355755
6.330000	-0.666324	-0.588359	0.077965	0.724392	-0.429715	-0.294676
6.335000	-0.665682	-0.541598	0.124083	0.697023	-0.455971	-0.241052
6.340000	-0.629394	-0.487763	0.141631	0.644991	-0.445151	-0.199839
6.345000	-0.569294	-0.433874	0.135421	0.579179	-0.406867	-0.172312
6.350000	-0.497316	-0.383863	0.113453	0.508748	-0.352628	-0.156121
6.355000	-0.421409	-0.339687	0.081722	0.439419	-0.290483	-0.148936
6.360000	-0.344943	-0.302882	0.042061	0.374021	-0.223436	-0.150585
6.365000	-0.269010	-0.273213	-0.004203	0.313052	-0.152886	-0.160166
6.370000	-0.193376	-0.248156	-0.054780	0.254919	-0.080018	-0.174900
6.375000	-0.117006	-0.225783	-0.108778	0.197909	-0.004750	-0.193159
6.380000	-0.039504	-0.205869	-0.166365	0.141666	0.073243	-0.214909
6.385000	0.037753	-0.189337	-0.227090	0.087517	0.152907	-0.240424
6.390000	0.110990	-0.177686	-0.288676	0.038507	0.230747	-0.269254
6.395000	0.176313	-0.171301	-0.347614	-0.002894	0.302489	-0.299595
6.400000	0.232162	-0.167702	-0.399864	-0.037216	0.364900	-0.327685
6.405000	0.279120	-0.164362	-0.443482	-0.066256	0.417195	-0.350939
6.410000	0.318567	-0.160942	-0.479509	-0.091005	0.460769	-0.369764
6.415000	0.352192	-0.157258	-0.509451	-0.112545	0.497470	-0.384925
6.420000	0.382085	-0.149314	-0.531399	-0.134391	0.527400	-0.393009
6.425000	0.409532	-0.128782	-0.538313	-0.162091	0.547238	-0.385147
6.430000	0.434484	-0.090384	-0.524868	-0.198666	0.553882	-0.355216
6.435000	0.456620	-0.036539	-0.493159	-0.242534	0.548355	-0.305821
6.440000	0.476173	0.024885	-0.451289	-0.289286	0.535470	-0.246184
6.445000	0.493243	0.084845	-0.408398	-0.333759	0.520563	-0.186803
6.450000	0.507772	0.134739	-0.373033	-0.370954	0.508533	-0.137579
6.455000	0.519408	0.167113	-0.352295	-0.396363	0.503278	-0.106915
6.460000	0.527921	0.175938	-0.351983	-0.406373	0.508012	-0.101640
6.465000	0.533259	0.161305	-0.371953	-0.401006	0.522624	-0.121618
6.470000	0.535139	0.130149	-0.404990	-0.384104	0.542783	-0.158679
6.475000	0.533202	0.090952	-0.442250	-0.360355	0.563177	-0.202822
6.480000	0.527324	0.052687	-0.474636	-0.334869	0.578482	-0.243612
6.485000	0.517382	0.025899	-0.491484	-0.313663	0.582469	-0.268806
6.490000	0.502831	0.017503	-0.485328	-0.300415	0.570513	-0.270098
6.495000	0.482071	0.028807	-0.453264	-0.294955	0.540015	-0.245060
6.500000	0.453942	0.058095	-0.395846	-0.295625	0.490625	-0.195000
6.505000	0.419317	0.101868	-0.317449	-0.300906	0.425372	-0.124465
6.510000	0.380672	0.151563	-0.229109	-0.307286	0.352057	-0.044771
6.515000	0.340819	0.193937	-0.146882	-0.308742	0.281575	0.027167
6.520000	0.302825	0.217266	-0.085559	-0.300274	0.224233	0.076041
6.525000	0.268748	0.215487	-0.053261	-0.279573	0.185912	0.093661
6.530000	0.235361	0.188982	-0.046378	-0.244994	0.162662	0.082333
6.535000	0.192960	0.142556	-0.050405	-0.193710	0.140507	0.053203
6.540000	0.132641	0.082971	-0.049670	-0.124483	0.105257	0.019226
6.545000	0.051654	0.019341	-0.032314	-0.040989	0.048479	-0.007490
6.550000	-0.047412	-0.038669	0.008743	0.049699	-0.032421	-0.017278
6.555000	-0.159555	-0.085387	0.074168	0.141417	-0.134940	-0.006477
6.560000	-0.279403	-0.119978	0.159425	0.230583	-0.253357	0.022774
6.565000	-0.402824	-0.142398	0.260427	0.314784	-0.382928	0.068144
6.570000	-0.526509	-0.151543	0.374966	0.391473	-0.520467	0.128994
6.575000	-0.640340	-0.148420	0.491920	0.455391	-0.653710	0.198320
6.580000	-0.726706	-0.135940	0.590766	0.498049	-0.760642	0.262593
6.585000	-0.770338	-0.117389	0.652949	0.512529	-0.821735	0.309205
6.590000	-0.765590	-0.096633	0.668957	0.497804	-0.828235	0.330431
6.595000	-0.718602	-0.078090	0.640513	0.459970	-0.784685	0.324715
6.600000	-0.643028	-0.065278	0.577750	0.408941	-0.704816	0.295875
6.605000	-0.552996	-0.060516	0.492480	0.354211	-0.603606	0.249395
6.610000	-0.459195	-0.064056	0.395138	0.302099	-0.493249	0.191150
6.615000	-0.368133	-0.074181	0.293952	0.255370	-0.382255	0.126885
6.620000	-0.281786	-0.088973	0.192813	0.214058	-0.274009	0.059952
6.625000	-0.199570	-0.107635	0.091936	0.177365	-0.168301	-0.009064
6.630000	-0.120509	-0.129244	-0.008735	0.144195	-0.064532	-0.079662
6.635000	-0.044348	-0.152134	-0.107786	0.113439	0.036626	-0.150065
6.640000	0.028509	-0.176183	-0.204692	0.085260	0.134639	-0.219898
6.645000	0.096807	-0.202132	-0.298939	0.060810	0.228484	-0.289294
6.650000	0.158122	-0.229193	-0.387315	0.041033	0.314908	-0.355941
6.655000	0.210445	-0.255755	-0.466199	0.026160	0.390660	-0.416820
6.660000	0.254187	-0.280856	-0.535043	0.015397	0.455662	-0.471059
6.665000	0.290884	-0.302553	-0.593437	0.006737	0.510563	-0.517300
6.670000	0.322940	-0.318366	-0.641305	-0.002641	0.556707	-0.554066
6.675000	0.353033	-0.327778	-0.680812	-0.014581	0.596890	-0.582309
6.680000	0.382387	-0.331037	-0.713423	-0.029647	0.632666	-0.603019
6.685000	0.410434	-0.327558	-0.737991	-0.047848	0.663043	-0.615195
6.690000	0.437373	-0.318370	-0.755742	-0.068707	0.688845	-0.620139
6.695000	0.463714	-0.306817	-0.770530	-0.090584	0.712591	-0.622006
6.700000	0.489058	-0.294689	-0.783747	-0.112219	0.734854	-0.622635
6.705000	0.512597	-0.282169	-0.794766	-0.133038	0.754806	-0.621768
6.710000	0.533345	-0.268811	-0.802156	-0.152728	0.771051	-0.618323
6.715000	0.550848	-0.253718	-0.804566	-0.171548	0.782549	-0.611000
6.720000	0.565357	-0.237252	-0.802608	-0.189432	0.789795	-0.600363
6.725000	0.577159	-0.220776	-0.797934	-0.205758	0.793910	-0.588152
6.730000	0.585710	-0.204374	-0.790084	-0.220164	0.794315	-0.574150
6.735000	0.589975	-0.186751	-0.776726	-0.232801	0.789065	-0.556264
6.740000	0.589531	-0.167643	-0.757173	-0.243577	0.777520	-0.533943
6.745000	0.583550	-0.149061	-0.732611	-0.250852	0.759885	-0.509033
6.750000	0.570377	-0.132358	-0.702735	-0.252890	0.735031	-0.482141
6.755000	0.548744	-0.117410	-0.666154	-0.249031	0.701422	-0.452391
6.760000	0.518341	-0.104747	-0.623088	-0.238788	0.659004	-0.420215
6.765000	0.480436	-0.095794	-0.576230	-0.222073	0.610066	-0.387993
6.770000	0.437119	-0.091263	-0.528382	-0.199680	0.557432	-0.357752
6.775000	0.391430	-0.091449	-0.482879	-0.173194	0.504782	-0.331588
6.780000	0.347767	-0.095498	-0.443266	-0.145647	0.456703	-0.311055
6.785000	0.311895	-0.099009	-0.410904	-0.122910	0.417308	-0.294398
6.790000	0.290358	-0.098259	-0.388618	-0.110909	0.392007	-0.281098
6.795000	0.288405	-0.091368	-0.379772	-0.113759	0.385772	-0.272013
6.800000	0.307093	-0.076038	-0.383131	-0.133399	0.398501	-0.265101
6.805000	0.343760	-0.049527	-0.393288	-0.169875	0.425535	-0.255659
6.810000	0.394363	-0.009586	-0.403949	-0.222151	0.460905	-0.238754
6.815000	0.455691	0.045601	-0.410090	-0.289421	0.499859	-0.210438
6.820000	0.527708	0.115182	-0.412526	-0.371172	0.542844	-0.171672
6.825000	0.613030	0.189102	-0.423928	-0.463110	0.598688	-0.135577
6.830000	0.711589	0.250997	-0.460592	-0.555749	0.676759	-0.121010
6.835000	0.818519	0.286247	-0.532273	-0.637837	0.779880	-0.142043
6.840000	0.927822	0.284029	-0.643793	-0.699663	0.907372	-0.207710
6.845000	1.033126	0.240796	-0.792330	-0.735499	1.053927	-0.318428
6.850000	1.124005	0.163958	-0.960047	-0.743606	1.203228	-0.459622
6.855000	1.188302	0.066966	-1.121336	-0.724729	1.333469	-0.608740
6.860000	1.217143	-0.038525	-1.255668	-0.680475	1.427677	-0.747202
6.865000	1.208764	-0.144662	-1.353426	-0.614359	1.479280	-0.864921
6.870000	1.168542	-0.244014	-1.412556	-0.533776	1.490197	-0.956421
6.875000	1.105626	-0.326124	-1.431749	-0.450046	1.464954	-1.014908
6.880000	1.030455	-0.380363	-1.410818	-0.375331	1.409469	-1.034138
6.885000	0.951875	-0.401655	-1.353530	-0.317670	1.331026	-1.013356
6.890000	0.875117	-0.392641	-1.267758	-0.278557	1.237189	-0.958632
6.895000	0.802555	-0.361265	-1.163820	-0.254778	1.135286	-0.880508
6.900000	0.734575	-0.316687	-1.051262	-0.241268	1.031053	-0.789785
6.905000	0.670182	-0.267372	-0.937553	-0.232562	0.928226	-0.695664
6.910000	0.607989	-0.219454	-0.827444	-0.224321	0.828747	-0.604427
6.915000	0.547599	-0.175664	-0.723263	-0.214737	0.733732	-0.518995
6.920000	0.488751	-0.136569	-0.625320	-0.203332	0.643209	-0.439877
6.925000	0.431064	-0.102829	-0.533894	-0.189506	0.557118	-0.367612
6.930000	0.375226	-0.073989	-0.449215	-0.173919	0.475991	-0.302071
6.935000	0.321963	-0.047834	-0.369797	-0.158268	0.399388	-0.241120
6.940000	0.271839	-0.022828	-0.294667	-0.143766	0.327072	-0.183305
6.945000	0.225287	0.001073	-0.224214	-0.130689	0.259520	-0.128831
6.950000	0.182918	0.023707	-0.159210	-0.119295	0.197528	-0.078233
6.955000	0.145487	0.045042	-0.100445	-0.110002	0.141989	-0.031987
6.960000	0.113139	0.064827	-0.048312	-0.102749	0.093214	0.009535
6.965000	0.084411	0.083363	-0.001048	-0.096864	0.049340	0.047524
6.970000	0.057443	0.101213	0.043770	-0.091600	0.007894	0.083706
6.975000	0.031455	0.117596	0.086141	-0.086055	-0.031573	0.117628
6.980000	0.006228	0.131986	0.125759	-0.079798	-0.069011	0.148809
6.985000	-0.018335	0.145459	0.163794	-0.073395	-0.105152	0.178547
6.990000	-0.042307	0.159192	0.201499	-0.067483	-0.140761	0.208245
6.995000	-0.065507	0.172921	0.238428	-0.062016	-0.175477	0.237493
7.000000	-0.087889	0.186347	0.274236	-0.056845	-0.209072	0.265917
7.005000	-0.109767	0.199144	0.308911	-0.051602	-0.241723	0.293326
7.010000	-0.130762	0.210151	0.340913	-0.045835	-0.272322	0.318157
7.015000	-0.149740	0.219146	0.368886	-0.040071	-0.299429	0.339500
7.020000	-0.166993	0.227220	0.394213	-0.034772	-0.324012	0.358784
7.025000	-0.183421	0.234906	0.418326	-0.029725	-0.347419	0.377144
7.030000	-0.198770	0.242193	0.440963	-0.025070	-0.369350	0.394420
7.035000	-0.212674	0.249211	0.461884	-0.021095	-0.389456	0.410551
7.040000	-0.224701	0.254968	0.479669	-0.017475	-0.406668	0.424142
7.045000	-0.234111	0.258177	0.492288	-0.013895	-0.419386	0.433281
7.050000	-0.240475	0.258790	0.499265	-0.010575	-0.427089	0.437663
7.055000	-0.243243	0.256027	0.499269	-0.007381	-0.428689	0.436070
7.060000	-0.242432	0.248615	0.491047	-0.003570	-0.423474	0.427044
7.065000	-0.239278	0.236824	0.476102	0.001417	-0.413025	0.411608
7.070000	-0.234415	0.223123	0.457538	0.006520	-0.399499	0.392980
7.075000	-0.226663	0.209421	0.436085	0.009954	-0.382637	0.372683
7.080000	-0.214680	0.196098	0.410778	0.010728	-0.361108	0.350380
7.085000	-0.198493	0.183486	0.381979	0.008664	-0.335135	0.326471
7.090000	-0.178391	0.171211	0.349602	0.004146	-0.304837	0.300692
7.095000	-0.154867	0.158770	0.313637	-0.002254	-0.270491	0.272745
7.100000	-0.129116	0.146750	0.275866	-0.010182	-0.233816	0.243998
7.105000	-0.102377	0.135728	0.238105	-0.019255	-0.196578	0.215833
7.110000	-0.074823	0.126137	0.200960	-0.029626	-0.159223	0.188849
7.115000	-0.046188	0.118442	0.164630	-0.041716	-0.121716	0.163432
7.120000	-0.016947	0.112511	0.129459	-0.055174	-0.084527	0.139701
7.125000	0.012372	0.107095	0.094723	-0.068975	-0.047545	0.116520
7.130000	0.040958	0.101500	0.060541	-0.082248	-0.011306	0.093554
7.135000	0.067773	0.096952	0.029179	-0.095104	0.022282	0.072822
7.140000	0.092655	0.094616	0.001961	-0.108121	0.052362	0.055759
7.145000	0.117498	0.095023	-0.022475	-0.122699	0.080813	0.041886
7.150000	0.145250	0.099581	-0.045669	-0.141354	0.110227	0.031126
7.155000	0.176961	0.109211	-0.067750	-0.165222	0.141284	0.023938
7.160000	0.211536	0.123254	-0.088282	-0.193291	0.173100	0.020191
7.165000	0.248307	0.140858	-0.107449	-0.224684	0.205396	0.019288
7.170000	0.287999	0.159453	-0.128546	-0.258337	0.240493	0.017844
7.175000	0.333085	0.177307	-0.155778	-0.294675	0.282246	0.012429
7.180000	0.387874	0.199385	-0.188488	-0.339054	0.332763	0.006291
7.185000	0.456895	0.235438	-0.221456	-0.399719	0.391646	0.008072
7.190000	0.540956	0.292422	-0.248534	-0.481151	0.455812	0.025339
7.195000	0.636880	0.370756	-0.266123	-0.581758	0.521349	0.060410
7.200000	0.739885	0.465375	-0.274510	-0.695857	0.585661	0.110196
7.205000	0.843831	0.564939	-0.278892	-0.813353	0.648204	0.165149
7.210000	0.938344	0.649742	-0.288602	-0.916882	0.708378	0.208504
7.215000	1.011172	0.700208	-0.310964	-0.988065	0.763336	0.224730
7.220000	1.053375	0.703165	-0.350209	-1.014138	0.810359	0.203779
7.225000	1.063225	0.652092	-0.411133	-0.990338	0.851220	0.139118
7.230000	1.044713	0.552478	-0.492236	-0.922138	0.887358	0.034781
7.235000	1.004438	0.421873	-0.582565	-0.823481	0.916256	-0.092775
7.240000	0.950659	0.281044	-0.669615	-0.711124	0.935465	-0.224341
7.245000	0.890385	0.146566	-0.743818	-0.598683	0.943507	-0.344824
7.250000	0.827478	0.027926	-0.799552	-0.493868	0.939366	-0.445498
7.255000	0.764474	-0.069065	-0.833539	-0.401495	0.922613	-0.521119
7.260000	0.703265	-0.139390	-0.842654	-0.325553	0.892536	-0.566983
7.265000	0.643867	-0.179531	-0.823398	-0.268084	0.847126	-0.579041
7.270000	0.584989	-0.190582	-0.775571	-0.227711	0.785519	-0.557808
7.275000	0.526192	-0.179094	-0.705286	-0.200397	0.710994	-0.510597
7.280000	0.467486	-0.152848	-0.620334	-0.181656	0.628053	-0.446397
7.285000	0.409393	-0.118267	-0.527660	-0.168081	0.541007	-0.372926
7.290000	0.352709	-0.081004	-0.433713	-0.156869	0.454041	-0.297172
7.295000	0.298091	-0.046213	-0.344304	-0.145422	0.370887	-0.225465
7.300000	0.246006	-0.017020	-0.263026	-0.132205	0.293889	-0.161685
7.305000	0.196902	0.005238	-0.191664	-0.116705	0.224338	-0.107633
7.310000	0.151552	0.020243	-0.131309	-0.099186	0.163310	-0.064124
7.315000	0.110493	0.030136	-0.080357	-0.081192	0.110187	-0.028995
7.320000	0.073643	0.038385	-0.035259	-0.064679	0.062875	0.001805
7.325000	0.040179	0.045557	0.005378	-0.049500	0.020092	0.029408
7.330000	0.009740	0.050517	0.040778	-0.034790	-0.017920	0.052709
7.335000	-0.017875	0.053741	0.071616	-0.020707	-0.051668	0.072375
7.340000	-0.043522	0.056502	0.100023	-0.007494	-0.082876	0.090370
7.345000	-0.067509	0.059811	0.127320	0.004444	-0.112484	0.108040
7.350000	-0.089785	0.064716	0.154502	0.014474	-0.141039	0.126565
7.355000	-0.111303	0.071032	0.182335	0.023250	-0.169532	0.146282
7.360000	-0.133057	0.076889	0.209946	0.032428	-0.198033	0.165604
7.365000	-0.154561	0.081451	0.236011	0.042210	-0.225497	0.183287
7.370000	-0.174540	0.084978	0.259518	0.051708	-0.250603	0.198895
7.375000	-0.191374	0.087482	0.278855	0.059982	-0.271487	0.211505
7.380000	-0.204650	0.089392	0.294042	0.066544	-0.287920	0.221376
7.385000	-0.215456	0.091711	0.307167	0.071445	-0.301737	0.230292
7.390000	-0.224938	0.093896	0.318835	0.075657	-0.313947	0.238290
7.395000	-0.233187	0.095222	0.328409	0.079654	-0.324238	0.244583
7.400000	-0.239870	0.096877	0.336747	0.082557	-0.332909	0.250352
7.405000	-0.244581	0.100097	0.344678	0.083418	-0.340209	0.256791
7.410000	-0.246391	0.104072	0.350462	0.082168	-0.344593	0.262425
7.415000	-0.244527	0.107994	0.352521	0.078828	-0.344706	0.265878
7.420000	-0.239111	0.111897	0.351008	0.073447	-0.340705	0.267259
7.425000	-0.230703	0.115405	0.346108	0.066567	-0.333022	0.266455
7.430000	-0.219343	0.118656	0.338000	0.058132	-0.321782	0.263650
7.435000	-0.204960	0.122372	0.327332	0.047682	-0.307318	0.259636
7.440000	-0.187170	0.125971	0.313141	0.035334	-0.288855	0.253521
7.445000	-0.165572	0.128339	0.293911	0.021497	-0.265282	0.243786
7.450000	-0.140973	0.129760	0.270734	0.006474	-0.237699	0.231225
7.455000	-0.114867	0.130982	0.245849	-0.009304	-0.208260	0.217564
7.460000	-0.088850	0.131711	0.220561	-0.024746	-0.178638	0.203384
7.465000	-0.064478	0.132288	0.196766	-0.039150	-0.150829	0.189979
7.470000	-0.042448	0.134507	0.176955	-0.053150	-0.126672	0.179822
7.475000	-0.022375	0.138973	0.161348	-0.067318	-0.106073	0.173391
7.480000	-0.002920	0.144700	0.147620	-0.081857	-0.086914	0.168771
7.485000	0.017075	0.150725	0.133650	-0.096880	-0.067304	0.164184
7.490000	0.037568	0.155756	0.118188	-0.111615	-0.046546	0.158162
7.495000	0.057550	0.158648	0.101098	-0.124822	-0.025142	0.149964
7.500000	0.075740	0.161262	0.085521	-0.136833	-0.005647	0.142480
7.505000	0.091447	0.166948	0.075501	-0.149184	0.009207	0.139978
7.510000	0.104759	0.176810	0.072051	-0.162564	0.018884	0.143680
7.515000	0.115781	0.190546	0.074765	-0.176858	0.023681	0.153177
7.520000	0.124559	0.208061	0.083502	-0.192038	0.023704	0.168334
7.525000	0.133132	0.229472	0.096340	-0.209349	0.021242	0.188108
7.530000	0.144051	0.254625	0.110574	-0.230175	0.019328	0.210847
7.535000	0.159944	0.284280	0.124336	-0.256473	0.020558	0.235915
7.540000	0.184226	0.319029	0.134803	-0.290554	0.028534	0.262020
7.545000	0.219443	0.358882	0.139439	-0.333896	0.046191	0.287705
7.550000	0.265980	0.402527	0.136547	-0.385963	0.074729	0.311234
7.555000	0.323674	0.446640	0.122966	-0.444741	0.115879	0.328862
7.560000	0.391997	0.489720	0.097723	-0.509059	0.169899	0.339160
7.565000	0.467940	0.535567	0.067627	-0.579375	0.231120	0.348254
7.570000	0.543691	0.588490	0.044799	-0.653665	0.288035	0.365629
7.575000	0.609238	0.648475	0.039237	-0.726141	0.329090	0.397051
7.580000	0.656760	0.711764	0.055004	-0.790118	0.347424	0.442694
7.585000	0.683024	0.774071	0.091047	-0.841254	0.341778	0.499476
7.590000	0.690172	0.829016	0.138844	-0.877103	0.318309	0.558794
7.595000	0.682931	0.863749	0.180818	-0.892976	0.289895	0.603080
7.600000	0.665569	0.863961	0.198392	-0.883074	0.269725	0.613349
7.605000	0.641313	0.820298	0.178985	-0.843862	0.266925	0.576936
7.610000	0.612319	0.728920	0.116601	-0.774365	0.286203	0.488162
7.615000	0.577780	0.596825	0.019045	-0.678158	0.322586	0.355572
7.620000	0.536760	0.442184	-0.094576	-0.565193	0.364502	0.200691
7.625000	0.490681	0.285782	-0.204899	-0.448291	0.401593	0.046697
7.630000	0.441915	0.143945	-0.297970	-0.338246	0.427172	-0.088926
7.635000	0.392356	0.028574	-0.363782	-0.243024	0.436556	-0.193533
7.640000	0.343247	-0.052765	-0.396012	-0.167709	0.426811	-0.259102
7.645000	0.295888	-0.099553	-0.395442	-0.113354	0.399139	-0.285785
7.650000	0.250847	-0.116890	-0.367737	-0.077340	0.357139	-0.279799
7.655000	0.208099	-0.112959	-0.321058	-0.054930	0.305509	-0.250580
7.660000	0.167817	-0.098019	-0.265836	-0.040298	0.250369	-0.210071
7.665000	0.130135	-0.080132	-0.210267	-0.028869	0.196531	-0.167662
7.670000	0.095351	-0.062474	-0.157824	-0.018982	0.146171	-0.127189
7.675000	0.064449	-0.047300	-0.111749	-0.009901	0.101728	-0.091827
7.680000	0.037953	-0.036574	-0.074528	-0.000796	0.064941	-0.064145
7.685000	0.014688	-0.030691	-0.045379	0.009240	0.034680	-0.043919
7.690000	-0.007074	-0.029437	-0.022363	0.021080	0.008827	-0.029906
7.695000	-0.027606	-0.031950	-0.004344	0.034384	-0.013430	-0.020954
7.700000	-0.046420	-0.036374	0.010046	0.047801	-0.032601	-0.015201
7.705000	-0.062925	-0.041509	0.021415	0.060295	-0.048694	-0.011601
7.710000	-0.077135	-0.047475	0.029660	0.071944	-0.061658	-0.010286
7.715000	-0.090053	-0.053697	0.036356	0.082994	-0.072982	-0.010012
7.720000	-0.102064	-0.059411	0.042652	0.093228	-0.083552	-0.009676
7.725000	-0.112903	-0.064694	0.048209	0.102536	-0.093018	-0.009518
7.730000	-0.122465	-0.069265	0.053200	0.110696	-0.101420	-0.009275
7.735000	-0.130403	-0.072354	0.058048	0.117062	-0.108802	-0.008260
7.740000	-0.135457	-0.075194	0.060263	0.121619	-0.112999	-0.008620
7.745000	-0.136847	-0.079519	0.057328	0.124919	-0.112106	-0.012812
7.750000	-0.135439	-0.084421	0.051018	0.126936	-0.107651	-0.019285
7.755000	-0.132715	-0.087703	0.045012	0.127259	-0.102611	-0.024647
7.760000	-0.129254	-0.088707	0.040548	0.125840	-0.098035	-0.027805
7.765000	-0.124246	-0.087743	0.036504	0.122392	-0.092809	-0.029583
7.770000	-0.117255	-0.084971	0.032284	0.116755	-0.086336	-0.030418
7.775000	-0.108766	-0.081532	0.027234	0.109869	-0.078520	-0.031349
7.780000	-0.099233	-0.077789	0.021443	0.102203	-0.069672	-0.032531
7.785000	-0.088579	-0.071836	0.016743	0.092616	-0.060808	-0.031808
7.790000	-0.075889	-0.062451	0.013438	0.079871	-0.051573	-0.028298
7.795000	-0.060705	-0.050369	0.010336	0.064129	-0.041016	-0.023113
7.800000	-0.044011	-0.035500	0.008511	0.045905	-0.030324	-0.015582
7.805000	-0.027456	-0.017968	0.009488	0.026225	-0.021329	-0.004896
7.810000	-0.011524	0.000492	0.012016	0.006370	-0.013591	0.007221
7.815000	0.003664	0.018882	0.015218	-0.013017	-0.006670	0.019688
7.820000	0.017702	0.037706	0.020004	-0.031990	-0.001329	0.033319
7.825000	0.030766	0.056601	0.025835	-0.050441	0.002847	0.047594
7.830000	0.043293	0.074418	0.031125	-0.067961	0.007026	0.060935
7.835000	0.054736	0.090853	0.036118	-0.084056	0.010749	0.073307
7.840000	0.064406	0.105786	0.041380	-0.098261	0.013294	0.084967
7.845000	0.072631	0.118996	0.046365	-0.110636	0.015165	0.095471
7.850000	0.079586	0.131334	0.051748	-0.121775	0.016073	0.105702
7.855000	0.085510	0.144335	0.058825	-0.132701	0.015406	0.117294
7.860000	0.093121	0.159001	0.065881	-0.145563	0.015727	0.129835
7.865000	0.106571	0.175646	0.069075	-0.162937	0.021648	0.141289
7.870000	0.127581	0.194451	0.066869	-0.185925	0.035052	0.150873
7.875000	0.155057	0.214286	0.059228	-0.213240	0.055327	0.157913
7.880000	0.188057	0.234598	0.046541	-0.244020	0.081704	0.162316
7.885000	0.226500	0.255960	0.029460	-0.278548	0.113761	0.164788
7.890000	0.271991	0.278007	0.006016	-0.317541	0.153560	0.163981
7.895000	0.328200	0.300744	-0.027456	-0.363121	0.205338	0.157782
7.900000	0.399144	0.324613	-0.074531	-0.417861	0.273476	0.144385
7.905000	0.485117	0.347804	-0.137313	-0.480887	0.359360	0.121527
7.910000	0.582448	0.367035	-0.215413	-0.548184	0.460645	0.087539
7.915000	0.686246	0.380698	-0.305548	-0.616000	0.572613	0.043387
7.920000	0.789850	0.387641	-0.402209	-0.679825	0.688236	-0.008411
7.925000	0.882371	0.385046	-0.497325	-0.731743	0.796567	-0.064824
7.930000	0.951976	0.370290	-0.581686	-0.763410	0.885460	-0.122050
7.935000	0.990551	0.344353	-0.646198	-0.770707	0.944977	-0.174270
7.940000	0.997150	0.313343	-0.683807	-0.756614	0.970501	-0.213887
7.945000	0.976125	0.287411	-0.688714	-0.729502	0.961194	-0.231692
7.950000	0.934292	0.277957	-0.656336	-0.699892	0.918349	-0.218457
7.955000	0.879828	0.292180	-0.587648	-0.676659	0.847247	-0.170588
7.960000	0.819300	0.330825	-0.488475	-0.664025	0.755044	-0.091019
7.965000	0.756367	0.389386	-0.366981	-0.661500	0.648565	0.012936
7.970000	0.693431	0.458425	-0.235006	-0.665024	0.536033	0.128991
7.975000	0.632134	0.520316	-0.111817	-0.665367	0.429520	0.235847
7.980000	0.572644	0.553235	-0.019409	-0.650026	0.341822	0.308204
7.985000	0.513848	0.542324	0.028475	-0.609781	0.280230	0.329551
7.990000	0.455307	0.482241	0.026934	-0.541294	0.247321	0.293972
7.995000	0.396875	0.379203	-0.017671	-0.448068	0.239338	0.208730
8.000000	0.339085	0.253467	-0.085618	-0.342110	0.245203	0.096907
8.005000	0.282756	0.129702	-0.153054	-0.238132	0.251615	-0.013483
8.010000	0.228559	0.025151	-0.203408	-0.146479	0.249396	-0.102917
8.015000	0.176928	-0.052423	-0.229351	-0.071883	0.234565	-0.162683
8.020000	0.128364	-0.101226	-0.229591	-0.015668	0.206665	-0.190997
8.025000	0.083730	-0.123195	-0.206925	0.022785	0.167810	-0.190595
8.030000	0.043523	-0.123884	-0.167407	0.046396	0.121781	-0.168177
8.035000	0.007289	-0.109760	-0.117050	0.059162	0.071787	-0.130949
8.040000	-0.026102	-0.088690	-0.062588	0.066275	0.021065	-0.087340
8.045000	-0.056638	-0.068609	-0.011971	0.072311	-0.025788	-0.046522
8.050000	-0.084155	-0.052856	0.031299	0.079103	-0.066657	-0.012446
8.055000	-0.109460	-0.041348	0.068112	0.087069	-0.102521	0.015452
8.060000	-0.132983	-0.033779	0.099204	0.096280	-0.134053	0.037773
8.065000	-0.154904	-0.029670	0.125233	0.106564	-0.161737	0.055173
8.070000	-0.176279	-0.028494	0.147785	0.118226	-0.187099	0.068873
8.075000	-0.198076	-0.030130	0.167946	0.131755	-0.211323	0.079568
8.080000	-0.219653	-0.033850	0.185804	0.146360	-0.234091	0.087731
8.085000	-0.239565	-0.038500	0.201065	0.160540	-0.254398	0.093857
8.090000	-0.256269	-0.043940	0.212329	0.173326	-0.270545	0.097220
8.095000	-0.269293	-0.050864	0.218429	0.184843	-0.281586	0.096743
8.100000	-0.279706	-0.058412	0.221294	0.195213	-0.289252	0.094040
8.105000	-0.288829	-0.065695	0.223133	0.204684	-0.295581	0.090897
8.110000	-0.296761	-0.072920	0.223841	0.213435	-0.300570	0.087135
8.115000	-0.303086	-0.079584	0.223502	0.220934	-0.304025	0.083091
8.120000	-0.307431	-0.085239	0.222193	0.226708	-0.305778	0.079070
8.125000	-0.308816	-0.090511	0.218306	0.230552	-0.304334	0.073783
8.130000	-0.306361	-0.095206	0.211156	0.231845	-0.298788	0.066944
8.135000	-0.300301	-0.098852	0.201449	0.230451	-0.289685	0.059234
8.140000	-0.291351	-0.101868	0.189483	0.227025	-0.277610	0.050585
8.145000	-0.279421	-0.104419	0.175002	0.221610	-0.262362	0.040751
8.150000	-0.264425	-0.105183	0.159242	0.213393	-0.244605	0.031211
8.155000	-0.246060	-0.103128	0.142931	0.201604	-0.224584	0.022980
8.160000	-0.223923	-0.098698	0.125225	0.186265	-0.201581	0.015315
8.165000	-0.198849	-0.092384	0.106465	0.168144	-0.176273	0.008129
8.170000	-0.172493	-0.083673	0.088820	0.147898	-0.150869	0.002971
8.175000	-0.146618	-0.073187	0.073431	0.126904	-0.127045	0.000141
8.180000	-0.122632	-0.061589	0.061043	0.106360	-0.106045	-0.000315
8.185000	-0.101013	-0.047619	0.053394	0.085812	-0.089147	0.003335
8.190000	-0.081249	-0.029920	0.051329	0.064183	-0.076544	0.012361
8.195000	-0.061855	-0.009640	0.052215	0.041278	-0.065859	0.024581
8.200000	-0.041733	0.011370	0.053103	0.017530	-0.054754	0.037223
8.205000	-0.021128	0.031420	0.052548	-0.005942	-0.042537	0.048479
8.210000	-0.001124	0.048678	0.049802	-0.027455	-0.029402	0.056857
8.215000	0.018724	0.063212	0.044489	-0.047306	-0.014875	0.062181
8.220000	0.041641	0.077058	0.035417	-0.068531	0.003594	0.064937
8.225000	0.071597	0.091159	0.019563	-0.093967	0.030042	0.063925
8.230000	0.110920	0.105578	-0.005342	-0.124995	0.067124	0.057871
8.235000	0.159424	0.120251	-0.039172	-0.161470	0.114659	0.046811
8.240000	0.215626	0.134429	-0.081197	-0.202105	0.171371	0.030734
8.245000	0.278200	0.147170	-0.131030	-0.245587	0.236269	0.009318
8.250000	0.347483	0.158837	-0.188645	-0.292324	0.309533	-0.017210
8.255000	0.426843	0.169517	-0.257326	-0.344308	0.395005	-0.050696
8.260000	0.519331	0.177170	-0.342160	-0.402125	0.497382	-0.095257
8.265000	0.622798	0.179149	-0.443650	-0.463004	0.615714	-0.152710
8.270000	0.731496	0.174113	-0.557383	-0.522853	0.744134	-0.221281
8.275000	0.839702	0.160648	-0.679054	-0.577552	0.876854	-0.299302
8.280000	0.939343	0.138180	-0.801162	-0.622108	1.004881	-0.382773
8.285000	1.018615	0.108531	-0.910085	-0.650758	1.113535	-0.462777
8.290000	1.066310	0.074258	-0.992052	-0.658507	1.188395	-0.529888
8.295000	1.076637	0.038282	-1.038355	-0.643698	1.221091	-0.577393
8.300000	1.051739	0.003872	-1.047867	-0.609457	1.212207	-0.602750
8.305000	0.999163	-0.027209	-1.026372	-0.561158	1.169443	-0.608285
8.310000	0.928997	-0.055603	-0.984601	-0.504254	1.104816	-0.600562
8.315000	0.851427	-0.081212	-0.932639	-0.444684	1.030031	-0.585347
8.320000	0.773485	-0.101043	-0.874528	-0.388234	0.951480	-0.563246
8.325000	0.698925	-0.109157	-0.808083	-0.340503	0.870071	-0.529569
8.330000	0.629181	-0.097545	-0.726726	-0.306940	0.782833	-0.475893
8.335000	0.563744	-0.060006	-0.623750	-0.290833	0.685600	-0.394766
8.340000	0.501051	0.003199	-0.497852	-0.291129	0.576716	-0.285588
8.345000	0.440088	0.085171	-0.354917	-0.303258	0.458996	-0.155738
8.350000	0.380796	0.176835	-0.203961	-0.321948	0.337609	-0.015661
8.355000	0.322702	0.268188	-0.054514	-0.341151	0.217786	0.123365
8.360000	0.265829	0.342976	0.077146	-0.351493	0.108936	0.242557
8.365000	0.211095	0.384432	0.173337	-0.343827	0.021800	0.322028
8.370000	0.159225	0.384729	0.225504	-0.314051	-0.038266	0.352318
8.375000	0.110758	0.343134	0.232375	-0.262055	-0.070215	0.332270
8.380000	0.066237	0.266344	0.200107	-0.192015	-0.077290	0.269306
8.385000	0.026357	0.171304	0.144948	-0.114120	-0.068468	0.182588
8.390000	-0.008260	0.078836	0.087097	-0.040747	-0.055054	0.095801
8.395000	-0.038277	0.004890	0.043166	0.019276	-0.047021	0.027745
8.400000	-0.065537	-0.041985	0.023551	0.062078	-0.051435	-0.010643
8.405000	-0.091533	-0.059810	0.031724	0.087378	-0.071162	-0.016216
8.410000	-0.116791	-0.052963	0.063828	0.098007	-0.104281	0.006273
8.415000	-0.141530	-0.030610	0.110920	0.099385	-0.145752	0.046367
8.420000	-0.165753	-0.002653	0.163100	0.097229	-0.189863	0.092634
8.425000	-0.189365	0.023232	0.212597	0.095917	-0.232073	0.136156
8.430000	-0.212164	0.042420	0.254584	0.098002	-0.269477	0.171475
8.435000	-0.234245	0.053265	0.287510	0.104489	-0.301235	0.196746
8.440000	-0.255810	0.055118	0.310928	0.115870	-0.327206	0.211336
8.445000	-0.276400	0.048985	0.325384	0.131298	-0.347440	0.216142
8.450000	-0.296511	0.038320	0.334831	0.149067	-0.364506	0.215439
8.455000	-0.316342	0.026570	0.342911	0.167300	-0.380620	0.213320
8.460000	-0.334659	0.015315	0.349975	0.184373	-0.395273	0.210900
8.465000	-0.350540	0.005243	0.355783	0.199357	-0.407795	0.208438
8.470000	-0.363364	-0.003470	0.359893	0.211792	-0.417572	0.205781
8.475000	-0.372621	-0.012062	0.360559	0.222097	-0.423301	0.201205
8.480000	-0.377991	-0.021803	0.356188	0.230821	-0.423879	0.193058
8.485000	-0.379321	-0.032914	0.346407	0.238004	-0.418999	0.180995
8.490000	-0.377281	-0.045291	0.331990	0.243972	-0.409497	0.165526
8.495000	-0.373000	-0.058830	0.314170	0.249317	-0.396738	0.147421
8.500000	-0.366735	-0.072428	0.294307	0.253550	-0.381653	0.128102
8.505000	-0.357336	-0.085158	0.272179	0.255474	-0.363450	0.107976
8.510000	-0.343943	-0.097236	0.246707	0.254714	-0.341012	0.086297
8.515000	-0.326707	-0.108029	0.218677	0.250995	-0.314877	0.063882
8.520000	-0.305766	-0.116186	0.189580	0.243614	-0.285988	0.042374
8.525000	-0.281705	-0.121587	0.160118	0.232841	-0.255086	0.022246
8.530000	-0.255550	-0.124964	0.130586	0.219689	-0.222936	0.003246
8.535000	-0.228355	-0.126144	0.102212	0.204670	-0.190853	-0.013817
8.540000	-0.200085	-0.124926	0.075159	0.187645	-0.158912	-0.028733
8.545000	-0.170749	-0.122202	0.048546	0.169135	-0.126610	-0.042525
8.550000	-0.141135	-0.117704	0.023431	0.149441	-0.095012	-0.054428
8.555000	-0.111999	-0.110342	0.001657	0.128369	-0.065619	-0.062749
8.560000	-0.084107	-0.100331	-0.016224	0.106485	-0.039192	-0.067293
8.565000	-0.058360	-0.088007	-0.029647	0.084505	-0.016577	-0.067928
8.570000	-0.038983	-0.074388	-0.035405	0.065455	-0.002066	-0.063389
8.575000	-0.036108	-0.064217	-0.028109	0.057922	-0.004618	-0.053304
8.580000	-0.060375	-0.061978	-0.001603	0.070641	-0.033932	-0.036709
8.585000	-0.115629	-0.067482	0.048147	0.105719	-0.094556	-0.011163
8.590000	-0.198359	-0.077550	0.120809	0.159296	-0.184271	0.024975
8.595000	-0.301373	-0.089020	0.212353	0.225393	-0.296600	0.071206
8.600000	-0.417053	-0.098281	0.318772	0.297528	-0.424828	0.127300
8.605000	-0.539110	-0.101748	0.437362	0.369999	-0.563766	0.193767
8.610000	-0.663184	-0.097027	0.566157	0.438908	-0.709760	0.270852
8.615000	-0.781060	-0.082590	0.698471	0.498628	-0.854207	0.355579
8.620000	-0.876300	-0.058260	0.818040	0.539568	-0.978227	0.438659
8.625000	-0.931946	-0.027229	0.904718	0.553780	-1.060398	0.506618
8.630000	-0.939321	0.005638	0.944960	0.539062	-1.087890	0.548828
8.635000	-0.901937	0.036342	0.938279	0.499751	-1.062449	0.562698
8.640000	-0.832113	0.061178	0.893291	0.445100	-0.996162	0.551063
8.645000	-0.744090	0.077198	0.821288	0.385030	-0.903771	0.518740
8.650000	-0.649844	0.084014	0.733858	0.326682	-0.798880	0.472198
8.655000	-0.557432	0.082914	0.640346	0.273963	-0.691537	0.417574
8.660000	-0.469801	0.074913	0.544714	0.227989	-0.585731	0.357742
8.665000	-0.386572	0.061602	0.448174	0.187621	-0.481941	0.294320
8.670000	-0.306922	0.045863	0.352785	0.150723	-0.380882	0.230159
8.675000	-0.230063	0.030740	0.260803	0.115079	-0.283401	0.168322
8.680000	-0.156059	0.021652	0.177711	0.077600	-0.192702	0.115102
8.685000	-0.086188	0.025802	0.111990	0.034864	-0.114418	0.079554
8.690000	-0.022651	0.047828	0.070478	-0.014536	-0.053768	0.068304
8.695000	0.032361	0.087953	0.055592	-0.069463	-0.013413	0.082876
8.700000	0.078469	0.141528	0.063059	-0.127016	0.008897	0.118119
8.705000	0.116910	0.200370	0.083460	-0.183181	0.019312	0.163869
8.710000	0.150105	0.253830	0.103725	-0.233212	0.026777	0.206434
8.715000	0.180867	0.289407	0.108541	-0.271513	0.041757	0.229756
8.720000	0.210666	0.296873	0.086207	-0.293028	0.071856	0.221172
8.725000	0.239339	0.270796	0.031457	-0.294526	0.120020	0.174506
8.730000	0.266954	0.211557	-0.055397	-0.276268	0.186110	0.090159
8.735000	0.293856	0.128168	-0.165688	-0.243656	0.265318	-0.021662
8.740000	0.319697	0.037594	-0.282103	-0.206282	0.347450	-0.141167
8.745000	0.343888	-0.041735	-0.385623	-0.174448	0.421183	-0.246735
8.750000	0.365304	-0.096330	-0.461634	-0.155292	0.477432	-0.322140
8.755000	0.383355	-0.120242	-0.503597	-0.151908	0.512082	-0.360174
8.760000	0.398523	-0.113905	-0.512428	-0.164324	0.525937	-0.361614
8.765000	0.411205	-0.083875	-0.495081	-0.188984	0.523244	-0.334260
8.770000	0.420827	-0.041815	-0.462642	-0.218822	0.510071	-0.291249
8.775000	0.426410	-0.001255	-0.427665	-0.245463	0.493100	-0.247637
8.780000	0.427454	0.028323	-0.399131	-0.263143	0.477229	-0.214086
8.785000	0.423208	0.044479	-0.378730	-0.270019	0.462999	-0.192980
8.790000	0.412156	0.047979	-0.364178	-0.265659	0.448216	-0.182557
8.795000	0.393132	0.041977	-0.351154	-0.251210	0.429714	-0.178503
8.800000	0.365403	0.032022	-0.333381	-0.229453	0.403443	-0.173990
8.805000	0.329615	0.022103	-0.307511	-0.203064	0.367845	-0.164780
8.810000	0.287952	0.012125	-0.275827	-0.173249	0.325498	-0.152249
8.815000	0.243040	0.000970	-0.242070	-0.140879	0.280078	-0.139199
8.820000	0.198104	-0.011976	-0.210080	-0.107461	0.235665	-0.128204
8.825000	0.155728	-0.027918	-0.183646	-0.073791	0.195937	-0.122146
8.830000	0.114837	-0.049394	-0.164231	-0.037783	0.161120	-0.123336
8.835000	0.070330	-0.079698	-0.150028	0.005408	0.127224	-0.132632
8.840000	0.016738	-0.121331	-0.138070	0.060387	0.089379	-0.149765
8.845000	-0.048355	-0.173402	-0.125047	0.128031	0.044278	-0.172309
8.850000	-0.125345	-0.231200	-0.105855	0.205851	-0.011253	-0.194598
8.855000	-0.213633	-0.289547	-0.075914	0.290511	-0.079512	-0.210999
8.860000	-0.311912	-0.343719	-0.031807	0.378528	-0.161719	-0.216810
8.865000	-0.419924	-0.389661	0.030264	0.467414	-0.259916	-0.207498
8.870000	-0.536033	-0.424136	0.111897	0.554354	-0.374083	-0.180271
8.875000	-0.649616	-0.444546	0.205070	0.631714	-0.493453	-0.138262
8.880000	-0.743136	-0.448802	0.294334	0.688165	-0.598983	-0.089182
8.885000	-0.801668	-0.436353	0.365315	0.714771	-0.673758	-0.041014
8.890000	-0.818038	-0.410135	0.407903	0.709086	-0.707798	-0.001288
8.895000	-0.795441	-0.375664	0.419777	0.676137	-0.701606	0.025469
8.900000	-0.744123	-0.337751	0.406372	0.624620	-0.664238	0.039618
8.905000	-0.675978	-0.300480	0.375498	0.563758	-0.607070	0.043312
8.910000	-0.600403	-0.268194	0.332209	0.501484	-0.538444	0.036960
8.915000	-0.522775	-0.242702	0.280073	0.441948	-0.463524	0.021576
8.920000	-0.445593	-0.222056	0.223537	0.385467	-0.386322	0.000855
8.925000	-0.369357	-0.203636	0.165720	0.330818	-0.308927	-0.021891
8.930000	-0.293255	-0.185374	0.107880	0.276336	-0.231595	-0.044741
8.935000	-0.216644	-0.166446	0.050199	0.221177	-0.154062	-0.067115
8.940000	-0.139655	-0.148668	-0.009014	0.166463	-0.075426	-0.091038
