Time	Lead I	Lead II	Lead III	aVR	aVL	aVF
0.000000	-0.000915	-0.000150	0.000766	0.000615	-0.000971	0.000356
0.005000	-0.019252	-0.002230	0.017022	0.012402	-0.020943	0.008540
0.010000	-0.084733	-0.007958	0.076775	0.053515	-0.093247	0.039732
0.015000	-0.197014	-0.015925	0.181088	0.122940	-0.218297	0.095357
0.020000	-0.327445	-0.023042	0.304403	0.202354	-0.364798	0.162444
0.025000	-0.444666	-0.026522	0.418144	0.272040	-0.498144	0.226103
0.030000	-0.530634	-0.025199	0.505435	0.320910	-0.598174	0.277264
0.035000	-0.582250	-0.019623	0.562627	0.347492	-0.660995	0.313504
0.040000	-0.605529	-0.011051	0.594477	0.355983	-0.692824	0.336841
0.045000	-0.609296	-0.000976	0.608320	0.352340	-0.702991	0.350650
0.050000	-0.601586	0.008391	0.609977	0.342481	-0.699496	0.357015
0.055000	-0.587778	0.015097	0.602875	0.330638	-0.687424	0.356786
0.060000	-0.570903	0.018592	0.589495	0.318877	-0.669956	0.351079
0.065000	-0.552228	0.019391	0.571620	0.307633	-0.648854	0.341220
0.070000	-0.532218	0.017903	0.550121	0.296940	-0.624888	0.327948
0.075000	-0.511992	0.014809	0.526802	0.287049	-0.599748	0.312699
0.080000	-0.492731	0.011859	0.504590	0.277631	-0.575803	0.298172
0.085000	-0.475080	0.010354	0.485434	0.268310	-0.554552	0.286243
0.090000	-0.459344	0.009687	0.469031	0.259610	-0.535997	0.276388
0.095000	-0.445985	0.008666	0.454651	0.252486	-0.519982	0.267496
0.100000	-0.435558	0.007114	0.442672	0.247362	-0.507046	0.259684
0.105000	-0.428760	0.005424	0.434183	0.244413	-0.498220	0.253807
0.110000	-0.425933	0.003891	0.429824	0.243666	-0.494071	0.250405
0.115000	-0.426957	0.002774	0.429731	0.244902	-0.494609	0.249707
0.120000	-0.431392	0.002473	0.433865	0.247636	-0.499556	0.251920
0.125000	-0.438554	0.002820	0.441374	0.251571	-0.508027	0.256455
0.130000	-0.447716	0.002457	0.450173	0.257071	-0.518396	0.261326
0.135000	-0.458659	-0.000057	0.458601	0.264840	-0.529580	0.264740
0.140000	-0.471789	-0.005610	0.466179	0.275626	-0.541536	0.265910
0.145000	-0.487728	-0.014384	0.473343	0.289894	-0.554874	0.264980
0.150000	-0.506686	-0.025279	0.481407	0.307130	-0.570475	0.263346
0.155000	-0.525952	-0.036869	0.489083	0.324945	-0.586031	0.261086
0.160000	-0.540413	-0.047850	0.492563	0.339634	-0.596388	0.256755
0.165000	-0.546053	-0.057546	0.488507	0.348488	-0.597304	0.248816
0.170000	-0.541491	-0.066111	0.475380	0.350799	-0.587091	0.236291
0.175000	-0.527809	-0.073933	0.453876	0.347416	-0.566776	0.219360
0.180000	-0.507926	-0.081527	0.426399	0.340321	-0.539433	0.199112
0.185000	-0.485465	-0.088773	0.396692	0.331536	-0.509313	0.177777
0.190000	-0.463994	-0.094673	0.369321	0.322546	-0.481114	0.158568
0.195000	-0.446113	-0.097754	0.348359	0.314001	-0.458688	0.144687
0.200000	-0.432878	-0.097683	0.335196	0.306319	-0.443448	0.137128
0.205000	-0.423573	-0.094925	0.328648	0.299355	-0.434295	0.134940
0.210000	-0.416407	-0.090096	0.326311	0.292430	-0.428809	0.136379
0.215000	-0.410166	-0.084376	0.325790	0.285524	-0.424904	0.139381
0.220000	-0.405297	-0.079253	0.326044	0.279755	-0.422240	0.142485
0.225000	-0.403611	-0.076295	0.327316	0.277074	-0.422000	0.144926
0.230000	-0.405514	-0.076062	0.329452	0.278038	-0.424333	0.146295
0.235000	-0.409949	-0.078097	0.331852	0.281773	-0.428279	0.146506
0.240000	-0.416271	-0.081934	0.334337	0.287639	-0.433364	0.145725
0.245000	-0.424412	-0.086970	0.337442	0.295247	-0.439856	0.144610
0.250000	-0.434720	-0.092289	0.342431	0.304269	-0.448689	0.144420
0.255000	-0.447611	-0.097037	0.350574	0.314452	-0.460832	0.146380
0.260000	-0.462579	-0.099610	0.362970	0.324580	-0.476631	0.152051
0.265000	-0.478715	-0.098754	0.379960	0.333402	-0.495756	0.162354
0.270000	-0.495557	-0.093735	0.401822	0.340227	-0.518102	0.177874
0.275000	-0.512181	-0.084955	0.427227	0.344757	-0.542367	0.197611
0.280000	-0.526520	-0.079839	0.446681	0.350081	-0.561877	0.211796
0.285000	-0.528772	-0.098037	0.430735	0.361888	-0.553971	0.192083
0.290000	-0.499487	-0.147470	0.352017	0.373520	-0.491616	0.118096
0.295000	-0.423835	-0.211314	0.212521	0.366703	-0.367400	0.000697
0.300000	-0.302368	-0.255412	0.046956	0.322034	-0.201682	-0.120352
0.305000	-0.153848	-0.242958	-0.089110	0.229096	-0.037377	-0.191719
0.310000	-0.015395	-0.153300	-0.137905	0.097396	0.070731	-0.168128
0.315000	0.071441	0.010600	-0.060841	-0.047366	0.076373	-0.029007
0.320000	0.081076	0.226278	0.145202	-0.177451	-0.037023	0.214474
0.325000	0.013304	0.450676	0.437371	-0.267879	-0.244835	0.512714
0.330000	-0.110221	0.630046	0.740268	-0.300121	-0.491030	0.791151
0.335000	-0.257013	0.725213	0.982226	-0.270316	-0.715474	0.985790
0.340000	-0.396924	0.725352	1.122276	-0.189618	-0.877110	1.066728
0.345000	-0.509032	0.644309	1.153341	-0.078102	-0.959771	1.037873
0.350000	-0.584566	0.508401	1.092967	0.043974	-0.968524	0.924550
0.355000	-0.626350	0.345732	0.972081	0.162015	-0.922854	0.760839
0.360000	-0.643528	0.181058	0.824586	0.267007	-0.847615	0.580609
0.365000	-0.646277	0.033786	0.680062	0.353622	-0.765762	0.412140
0.370000	-0.642587	-0.082567	0.560020	0.418667	-0.694325	0.275658
0.375000	-0.637221	-0.162338	0.474884	0.461625	-0.642074	0.180448
0.380000	-0.632337	-0.207783	0.424554	0.485043	-0.610196	0.125153
0.385000	-0.628143	-0.226398	0.401746	0.493369	-0.594607	0.101237
0.390000	-0.623657	-0.227417	0.396240	0.491367	-0.588837	0.097470
0.395000	-0.618694	-0.219107	0.399587	0.483704	-0.587904	0.104200
0.400000	-0.614295	-0.207676	0.406619	0.474565	-0.589425	0.114859
0.405000	-0.610808	-0.196785	0.414023	0.466264	-0.591687	0.125423
0.410000	-0.607396	-0.187116	0.420280	0.458712	-0.593329	0.134617
0.415000	-0.603434	-0.178360	0.425074	0.451369	-0.593809	0.142440
0.420000	-0.598944	-0.171003	0.427941	0.444529	-0.592872	0.148343
0.425000	-0.593766	-0.166023	0.427742	0.438664	-0.589768	0.151104
0.430000	-0.587202	-0.163600	0.423603	0.433476	-0.583588	0.150113
0.435000	-0.578548	-0.162620	0.415928	0.427913	-0.574160	0.146247
0.440000	-0.567272	-0.161997	0.405274	0.421043	-0.561499	0.140456
0.445000	-0.553151	-0.161064	0.392087	0.412352	-0.545733	0.133381
0.450000	-0.536458	-0.159010	0.377447	0.401528	-0.527643	0.126115
0.455000	-0.517420	-0.155428	0.361992	0.388469	-0.507729	0.119259
0.460000	-0.497048	-0.150750	0.346297	0.374006	-0.486905	0.112899
0.465000	-0.476981	-0.145174	0.331807	0.359201	-0.466953	0.107753
0.470000	-0.458249	-0.138019	0.320229	0.344255	-0.449454	0.105199
0.475000	-0.441188	-0.129817	0.311372	0.329670	-0.434490	0.104821
0.480000	-0.426190	-0.122195	0.303995	0.316610	-0.421572	0.104962
0.485000	-0.413852	-0.116279	0.297573	0.306071	-0.410741	0.104670
0.490000	-0.405035	-0.112598	0.292436	0.298855	-0.402685	0.103830
0.495000	-0.400551	-0.111016	0.289536	0.295353	-0.398422	0.103069
0.500000	-0.400391	-0.111400	0.288991	0.295482	-0.398014	0.102532
0.505000	-0.404028	-0.113918	0.290111	0.299036	-0.400761	0.101725
0.510000	-0.410664	-0.118971	0.291693	0.305784	-0.405506	0.099721
0.515000	-0.419446	-0.127425	0.292021	0.315736	-0.410765	0.095029
0.520000	-0.429830	-0.139002	0.290828	0.328415	-0.416072	0.087657
0.525000	-0.442035	-0.152449	0.289586	0.343225	-0.422401	0.079176
0.530000	-0.456823	-0.167063	0.289760	0.360200	-0.431040	0.070839
0.535000	-0.475012	-0.181718	0.293294	0.379163	-0.443582	0.064419
0.540000	-0.495071	-0.194912	0.300159	0.398362	-0.459126	0.060765
0.545000	-0.511968	-0.206118	0.305850	0.414587	-0.472167	0.057580
0.550000	-0.520703	-0.215361	0.305342	0.424967	-0.476917	0.051950
0.555000	-0.519142	-0.222512	0.296629	0.428194	-0.470986	0.042791
0.560000	-0.507810	-0.227606	0.280203	0.424592	-0.454959	0.030367
0.565000	-0.489242	-0.231109	0.258133	0.415895	-0.431497	0.015603
0.570000	-0.467071	-0.232821	0.234250	0.404083	-0.404907	0.000825
0.575000	-0.444955	-0.231978	0.212977	0.390828	-0.379858	-0.010970
0.580000	-0.425772	-0.228534	0.197238	0.377763	-0.359695	-0.018069
0.585000	-0.411046	-0.223379	0.187666	0.366285	-0.345666	-0.020619
0.590000	-0.400605	-0.217163	0.183442	0.356669	-0.337199	-0.019469
0.595000	-0.392711	-0.210337	0.182374	0.348170	-0.332025	-0.016145
0.600000	-0.385857	-0.203698	0.182159	0.340379	-0.327944	-0.012435
0.605000	-0.379936	-0.198091	0.181844	0.333724	-0.324344	-0.009380
0.610000	-0.376582	-0.194661	0.181921	0.329807	-0.322451	-0.007356
0.615000	-0.376951	-0.194615	0.182337	0.329994	-0.322905	-0.007089
0.620000	-0.380344	-0.198221	0.182123	0.334035	-0.324740	-0.009294
0.625000	-0.385759	-0.204723	0.181035	0.340915	-0.327239	-0.013676
0.630000	-0.393041	-0.212888	0.180153	0.349833	-0.330933	-0.018900
0.635000	-0.402360	-0.221204	0.181156	0.360014	-0.336892	-0.023122
0.640000	-0.414164	-0.228016	0.186148	0.370763	-0.346590	-0.024172
0.645000	-0.428353	-0.231857	0.196496	0.381172	-0.360757	-0.020416
0.650000	-0.444087	-0.231997	0.212090	0.390337	-0.378844	-0.011493
0.655000	-0.460835	-0.228778	0.232057	0.398148	-0.400041	0.001893
0.660000	-0.477990	-0.223798	0.254193	0.405177	-0.422726	0.017549
0.665000	-0.494464	-0.218425	0.276039	0.411586	-0.444850	0.033263
0.670000	-0.509619	-0.212149	0.297470	0.416713	-0.465973	0.049260
0.675000	-0.524118	-0.204477	0.319641	0.420655	-0.487144	0.066489
0.680000	-0.538613	-0.195910	0.342704	0.424077	-0.508828	0.084751
0.685000	-0.552473	-0.186852	0.365621	0.426849	-0.530062	0.103213
0.690000	-0.564802	-0.178221	0.386581	0.428985	-0.549281	0.120296
0.695000	-0.575071	-0.170975	0.404096	0.430730	-0.565322	0.134592
0.700000	-0.582651	-0.165320	0.417331	0.431841	-0.577339	0.145498
0.705000	-0.586507	-0.160636	0.425871	0.431363	-0.584497	0.153134
0.710000	-0.586281	-0.156843	0.429439	0.429043	-0.586426	0.157383
0.715000	-0.582660	-0.154561	0.428100	0.425634	-0.583562	0.157928
0.720000	-0.575803	-0.154553	0.421250	0.421671	-0.575648	0.153977
0.725000	-0.564893	-0.156650	0.408243	0.416583	-0.561840	0.145257
0.730000	-0.549620	-0.159791	0.389829	0.409578	-0.542391	0.132813
0.735000	-0.530833	-0.163342	0.367491	0.400782	-0.518648	0.117865
0.740000	-0.509327	-0.167458	0.341869	0.390741	-0.491438	0.100696
0.745000	-0.485682	-0.171882	0.313799	0.379645	-0.461580	0.081936
0.750000	-0.460722	-0.175994	0.284729	0.367608	-0.430386	0.062778
0.755000	-0.435059	-0.179621	0.255439	0.354886	-0.398659	0.043773
0.760000	-0.406530	-0.182466	0.224065	0.340057	-0.364074	0.024017
0.765000	-0.362210	-0.182620	0.179590	0.314558	-0.312808	-0.001749
0.770000	-0.283674	-0.178878	0.104796	0.267054	-0.224283	-0.042771
0.775000	-0.161989	-0.167008	-0.005019	0.189946	-0.090626	-0.099320
0.780000	-0.003473	-0.133469	-0.129996	0.079064	0.073048	-0.152112
0.785000	0.170144	-0.057432	-0.227576	-0.065074	0.229624	-0.164550
0.790000	0.321976	0.075251	-0.246725	-0.229339	0.328340	-0.099001
0.795000	0.413269	0.263498	-0.149772	-0.390732	0.325072	0.065660
0.800000	0.422069	0.490040	0.067971	-0.526606	0.204438	0.322167
0.805000	0.351313	0.716525	0.365212	-0.616516	-0.008024	0.624541
0.810000	0.224837	0.893103	0.668266	-0.645443	-0.256014	0.901457
0.815000	0.076293	0.983840	0.907547	-0.612068	-0.479924	1.091992
0.820000	-0.064068	0.980299	1.044367	-0.528986	-0.639955	1.168941
0.825000	-0.175937	0.897102	1.073038	-0.416365	-0.721096	1.137460
0.830000	-0.251209	0.760132	1.011342	-0.293827	-0.728934	1.022761
0.835000	-0.292965	0.597013	0.889978	-0.175542	-0.682972	0.858514
0.840000	-0.310452	0.433868	0.744320	-0.071254	-0.608973	0.680227
0.845000	-0.313856	0.292292	0.606148	0.012450	-0.531164	0.518714
0.850000	-0.311074	0.185385	0.496458	0.072567	-0.466229	0.393662
0.855000	-0.306815	0.116026	0.422842	0.110152	-0.421267	0.311115
0.860000	-0.303068	0.079030	0.382098	0.129348	-0.395581	0.266233
0.865000	-0.299856	0.065153	0.365009	0.135505	-0.383859	0.248354
0.870000	-0.296153	0.065132	0.361285	0.133380	-0.379572	0.246192
0.875000	-0.291935	0.071839	0.363774	0.127072	-0.378573	0.251501
0.880000	-0.288442	0.080079	0.368521	0.120298	-0.379298	0.259000
0.885000	-0.286020	0.086560	0.372580	0.115158	-0.380242	0.265085
0.890000	-0.283695	0.090792	0.374487	0.111372	-0.380001	0.268629
0.895000	-0.280701	0.094282	0.374983	0.107629	-0.378559	0.270930
0.900000	-0.277054	0.098203	0.375256	0.103260	-0.376611	0.273351
0.905000	-0.272581	0.102558	0.375139	0.098163	-0.373961	0.275798
0.910000	-0.266675	0.107018	0.373693	0.092178	-0.369717	0.277539
0.915000	-0.258785	0.110834	0.369619	0.085420	-0.362809	0.277390
0.920000	-0.248432	0.113205	0.361636	0.078073	-0.352223	0.274149
0.925000	-0.235378	0.114221	0.349600	0.069950	-0.337737	0.267787
0.930000	-0.219757	0.115048	0.334806	0.060454	-0.320177	0.259723
0.935000	-0.201736	0.116755	0.318491	0.049064	-0.300353	0.251289
0.940000	-0.182335	0.119864	0.302199	0.036068	-0.279746	0.243678
0.945000	-0.163160	0.125128	0.288289	0.021958	-0.260644	0.238686
0.950000	-0.145361	0.133071	0.278432	0.007096	-0.244677	0.237581
0.955000	-0.129408	0.142677	0.272085	-0.007661	-0.231802	0.239463
0.960000	-0.115807	0.151497	0.267303	-0.020606	-0.221189	0.241794
0.965000	-0.105127	0.157174	0.262301	-0.030049	-0.212135	0.242184
0.970000	-0.098029	0.158256	0.256285	-0.034772	-0.204563	0.239335
0.975000	-0.094947	0.154608	0.249555	-0.034446	-0.198898	0.233344
0.980000	-0.095719	0.147331	0.243050	-0.029799	-0.195588	0.225387
0.985000	-0.099951	0.137482	0.237433	-0.021669	-0.194788	0.216457
0.990000	-0.107141	0.125530	0.232671	-0.010617	-0.196191	0.206808
0.995000	-0.116626	0.111451	0.228077	0.002987	-0.199014	0.196027
1.000000	-0.127885	0.095081	0.222966	0.018939	-0.202564	0.183624
1.005000	-0.141040	0.077383	0.218423	0.036753	-0.207536	0.170784
1.010000	-0.156691	0.059342	0.216033	0.056205	-0.215192	0.158988
1.015000	-0.175438	0.041834	0.217272	0.077136	-0.226731	0.149595
1.020000	-0.195782	0.025680	0.221462	0.098209	-0.240896	0.142687
1.025000	-0.213107	0.011487	0.224594	0.116406	-0.252707	0.136301
1.030000	-0.222559	-0.000115	0.222444	0.128561	-0.256922	0.128361
1.035000	-0.221915	-0.008801	0.213114	0.133204	-0.251164	0.117960
1.040000	-0.211633	-0.014771	0.196862	0.130714	-0.235844	0.105130
1.045000	-0.194177	-0.018788	0.175389	0.122955	-0.213369	0.090414
1.050000	-0.173069	-0.021238	0.151830	0.112183	-0.187581	0.075397
1.055000	-0.151891	-0.022162	0.129729	0.100489	-0.162593	0.062104
1.060000	-0.133583	-0.021410	0.112173	0.089485	-0.141887	0.052402
1.065000	-0.119705	-0.019836	0.099869	0.080564	-0.126771	0.046207
1.070000	-0.110142	-0.018275	0.091867	0.074142	-0.116630	0.042488
1.075000	-0.103257	-0.016299	0.086958	0.069025	-0.109821	0.040795
1.080000	-0.097396	-0.013614	0.083782	0.064091	-0.104603	0.040512
1.085000	-0.092382	-0.010655	0.081727	0.059488	-0.100522	0.041033
1.090000	-0.090077	-0.008235	0.081842	0.056760	-0.099258	0.042497
1.095000	-0.091695	-0.006836	0.084859	0.056887	-0.101934	0.045046
1.100000	-0.096328	-0.007008	0.089320	0.059661	-0.107183	0.047523
1.105000	-0.102846	-0.008841	0.094005	0.064482	-0.113652	0.049170
1.110000	-0.111096	-0.012114	0.098983	0.071135	-0.121289	0.050154
1.115000	-0.121349	-0.016453	0.104896	0.079560	-0.130623	0.051063
1.120000	-0.134161	-0.021186	0.112975	0.089690	-0.142684	0.052994
1.125000	-0.149223	-0.025098	0.124125	0.100645	-0.157818	0.057173
1.130000	-0.165598	-0.026758	0.138840	0.111057	-0.175768	0.064711
1.135000	-0.182945	-0.024516	0.158428	0.119778	-0.197091	0.077314
1.140000	-0.200695	-0.016798	0.183897	0.125569	-0.222044	0.096474
1.145000	-0.217828	-0.003780	0.214048	0.127945	-0.249344	0.121398
1.150000	-0.233871	0.012831	0.246702	0.127617	-0.277459	0.149842
1.155000	-0.249471	0.030595	0.280066	0.126368	-0.305728	0.179360
1.160000	-0.265176	0.047539	0.312715	0.125653	-0.333645	0.207992
1.165000	-0.280152	0.062042	0.342194	0.125926	-0.359311	0.233386
1.170000	-0.293376	0.072301	0.365677	0.127638	-0.380505	0.252867
1.175000	-0.304239	0.076465	0.380704	0.131505	-0.395452	0.263947
1.180000	-0.308716	0.069791	0.378507	0.137944	-0.396768	0.258825
1.185000	-0.290835	0.039760	0.330595	0.144958	-0.358783	0.213824
1.190000	-0.229941	-0.016258	0.213683	0.142143	-0.256126	0.113984
1.195000	-0.117370	-0.082984	0.034386	0.115675	-0.087616	-0.028058
1.200000	0.038141	-0.134110	-0.172250	0.055408	0.121469	-0.176877
1.205000	0.211570	-0.139334	-0.350904	-0.041705	0.324745	-0.283039
1.210000	0.363315	-0.079119	-0.442434	-0.164080	0.465199	-0.301119
1.215000	0.453478	0.046383	-0.407095	-0.288595	0.496852	-0.208257
1.220000	0.460372	0.223982	-0.236390	-0.395112	0.402275	-0.007164
1.225000	0.387841	0.428202	0.040361	-0.471142	0.200618	0.270525
1.230000	0.260601	0.616459	0.355858	-0.506371	-0.054997	0.561368
1.235000	0.112221	0.744911	0.632689	-0.494865	-0.300492	0.795357
1.240000	-0.027499	0.789552	0.817051	-0.439971	-0.487601	0.927572
1.245000	-0.138453	0.752269	0.890723	-0.354386	-0.594195	0.948581
1.250000	-0.212758	0.651643	0.864402	-0.253390	-0.621898	0.875289
1.255000	-0.253792	0.511350	0.765141	-0.148701	-0.588281	0.736982
1.260000	-0.270920	0.356014	0.626934	-0.049129	-0.518376	0.567505
1.265000	-0.274222	0.210848	0.485070	0.036589	-0.438377	0.401788
1.270000	-0.271458	0.094281	0.365739	0.102293	-0.367886	0.265593
1.275000	-0.267177	0.012603	0.279781	0.146978	-0.315786	0.168808
1.280000	-0.263288	-0.038064	0.225225	0.173985	-0.282043	0.108058
1.285000	-0.259912	-0.066371	0.193541	0.188380	-0.261801	0.073422
1.290000	-0.256190	-0.080827	0.175364	0.194577	-0.249158	0.054581
1.295000	-0.252128	-0.088108	0.164020	0.196435	-0.240263	0.043828
1.300000	-0.248872	-0.092789	0.156083	0.197257	-0.233801	0.036543
1.305000	-0.246602	-0.096479	0.150123	0.198078	-0.229049	0.030972
1.310000	-0.244313	-0.098090	0.146223	0.197687	-0.225476	0.027790
1.315000	-0.241395	-0.095457	0.145938	0.194482	-0.223627	0.029145
1.320000	-0.237922	-0.087533	0.150389	0.187901	-0.224191	0.036290
1.325000	-0.233663	-0.074815	0.158848	0.178100	-0.226616	0.048516
1.330000	-0.227843	-0.058043	0.169800	0.165056	-0.229579	0.064523
1.335000	-0.219891	-0.038915	0.180976	0.149422	-0.231441	0.082019
1.340000	-0.209371	-0.019952	0.189420	0.132400	-0.230242	0.097842
1.345000	-0.196057	-0.002760	0.193297	0.114787	-0.224794	0.110007
1.350000	-0.180157	0.011844	0.192001	0.097176	-0.214866	0.117690
1.355000	-0.161950	0.022736	0.184686	0.080375	-0.200131	0.119755
1.360000	-0.142603	0.028804	0.171407	0.065702	-0.181294	0.115592
1.365000	-0.123732	0.030489	0.154221	0.053834	-0.160476	0.106642
1.370000	-0.106344	0.029174	0.135518	0.044554	-0.139639	0.095085
1.375000	-0.090747	0.025483	0.116230	0.037680	-0.119498	0.081818
1.380000	-0.077338	0.019204	0.096542	0.033564	-0.100390	0.066826
1.385000	-0.066729	0.010035	0.076763	0.032732	-0.082845	0.050113
1.390000	-0.059737	-0.001738	0.057999	0.035493	-0.067975	0.032482
1.395000	-0.056856	-0.015064	0.041792	0.041523	-0.056955	0.015432
1.400000	-0.057842	-0.028558	0.029284	0.049883	-0.050302	0.000419
1.405000	-0.062250	-0.041106	0.021144	0.059673	-0.048147	-0.011525
1.410000	-0.069485	-0.051695	0.017789	0.069963	-0.050387	-0.019576
1.415000	-0.078832	-0.060043	0.018789	0.080179	-0.056361	-0.023818
1.420000	-0.089926	-0.066751	0.023174	0.090458	-0.065298	-0.025159
1.425000	-0.103150	-0.072041	0.031109	0.101147	-0.077514	-0.023632
1.430000	-0.119197	-0.076300	0.042897	0.112870	-0.093585	-0.019285
1.435000	-0.138528	-0.079551	0.058977	0.125908	-0.114029	-0.011879
1.440000	-0.159319	-0.081002	0.078317	0.138749	-0.137199	-0.001550
1.445000	-0.176668	-0.080300	0.096368	0.148360	-0.157637	0.009277
1.450000	-0.185755	-0.077397	0.108358	0.151931	-0.169807	0.017875
1.455000	-0.184659	-0.072541	0.112119	0.148494	-0.171345	0.022850
1.460000	-0.173984	-0.066916	0.107068	0.139084	-0.162265	0.023181
1.465000	-0.156269	-0.062592	0.093677	0.126359	-0.144307	0.017947
1.470000	-0.135081	-0.060852	0.074229	0.113122	-0.120845	0.007723
1.475000	-0.113961	-0.061602	0.052359	0.101361	-0.096025	-0.005336
1.480000	-0.095816	-0.064819	0.030996	0.092743	-0.073215	-0.019528
1.485000	-0.082119	-0.070961	0.011158	0.088380	-0.053853	-0.034527
1.490000	-0.072592	-0.080473	-0.007881	0.088372	-0.037361	-0.051011
1.495000	-0.065541	-0.093085	-0.027544	0.091583	-0.021938	-0.069645
1.500000	-0.058717	-0.107856	-0.049139	0.096171	-0.005530	-0.090642
1.505000	-0.043528	-0.125313	-0.081785	0.097481	0.022087	-0.119568
1.510000	-0.002054	-0.144515	-0.142461	0.084622	0.081063	-0.165685
1.515000	0.080221	-0.157768	-0.237989	0.044772	0.183718	-0.228490
1.520000	0.203851	-0.147446	-0.351297	-0.032566	0.320515	-0.287950
1.525000	0.351623	-0.089804	-0.441427	-0.151161	0.457868	-0.306706
1.530000	0.487763	0.030438	-0.457325	-0.299183	0.545646	-0.246463
1.535000	0.571695	0.211620	-0.360075	-0.452247	0.537957	-0.085711
1.540000	0.578504	0.435360	-0.143144	-0.585354	0.416643	0.168711
1.545000	0.508386	0.662291	0.153905	-0.675891	0.204660	0.471230
1.550000	0.383116	0.841393	0.458277	-0.706970	-0.043395	0.750364
1.555000	0.235023	0.935350	0.700327	-0.675715	-0.268644	0.944358
1.560000	0.094087	0.934693	0.840606	-0.593966	-0.431002	1.024969
1.565000	-0.019060	0.853573	0.872633	-0.481806	-0.514818	0.996625
1.570000	-0.095831	0.717769	0.813600	-0.359076	-0.525060	0.884136
1.575000	-0.138972	0.554944	0.693915	-0.240161	-0.480867	0.721029
1.580000	-0.157497	0.391341	0.548838	-0.135010	-0.407802	0.542812
1.585000	-0.161460	0.248852	0.410312	-0.050456	-0.330113	0.380568
1.590000	-0.158876	0.140973	0.299849	0.010336	-0.264845	0.254509
1.595000	-0.154608	0.070803	0.225411	0.048385	-0.219404	0.171019
1.600000	-0.150847	0.033154	0.184001	0.067950	-0.193325	0.125374
1.605000	-0.147809	0.018832	0.166641	0.074465	-0.181548	0.107083
1.610000	-0.144522	0.018495	0.163017	0.072762	-0.177557	0.104796
1.615000	-0.140879	0.025026	0.165905	0.066887	-0.177122	0.110234
1.620000	-0.137984	0.033262	0.171247	0.060461	-0.178535	0.118074
1.625000	-0.136164	0.039845	0.176009	0.055610	-0.180233	0.124623
1.630000	-0.134402	0.044283	0.178685	0.052031	-0.180761	0.128730
1.635000	-0.131931	0.047996	0.179927	0.048460	-0.180052	0.131592
1.640000	-0.128808	0.052096	0.180904	0.044290	-0.178812	0.134522
1.645000	-0.124982	0.056594	0.181575	0.039484	-0.176991	0.137507
1.650000	-0.119634	0.061181	0.180815	0.033748	-0.173464	0.139717
1.655000	-0.112089	0.065131	0.177220	0.027111	-0.167033	0.139922
1.660000	-0.102040	0.067621	0.169661	0.019871	-0.156866	0.136995
1.665000	-0.089370	0.068581	0.157951	0.012003	-0.142791	0.130788
1.670000	-0.074203	0.069260	0.143462	0.002854	-0.125669	0.122815
1.675000	-0.056630	0.070982	0.127613	-0.008286	-0.106373	0.114659
1.680000	-0.037704	0.074358	0.112062	-0.021162	-0.086467	0.107629
1.685000	-0.019087	0.079983	0.099069	-0.035158	-0.068218	0.103376
1.690000	-0.001853	0.088256	0.090109	-0.049885	-0.053094	0.102979
1.695000	0.013646	0.098220	0.084574	-0.064586	-0.040950	0.105536
1.700000	0.026958	0.107382	0.080425	-0.077561	-0.030869	0.108430
1.705000	0.037538	0.113356	0.075818	-0.087119	-0.022100	0.109219
1.710000	0.044669	0.114695	0.070026	-0.092009	-0.014640	0.106649
1.715000	0.047748	0.111173	0.063426	-0.091753	-0.009052	0.100805
1.720000	0.046867	0.103879	0.057012	-0.087033	-0.005857	0.092890
1.725000	0.042425	0.093985	0.051561	-0.078756	-0.005275	0.084031
1.730000	0.034948	0.081966	0.047018	-0.067500	-0.006969	0.074469
1.735000	0.025172	0.067822	0.042650	-0.053691	-0.010091	0.063781
1.740000	0.013624	0.051514	0.037890	-0.037607	-0.014010	0.051617
1.745000	0.000084	0.034019	0.033935	-0.019690	-0.019544	0.039234
1.750000	-0.016118	0.016275	0.032393	-0.000090	-0.028008	0.028098
1.755000	-0.035570	-0.001036	0.034534	0.021135	-0.040474	0.019340
1.760000	-0.056782	-0.017124	0.039658	0.042670	-0.055680	0.013010
1.765000	-0.074917	-0.031321	0.043596	0.061336	-0.068423	0.007087
1.770000	-0.084913	-0.042998	0.041915	0.073849	-0.073224	-0.000625
1.775000	-0.084721	-0.051749	0.032972	0.078791	-0.067950	-0.010841
1.780000	-0.074902	-0.057787	0.017115	0.076608	-0.053126	-0.023482
1.785000	-0.057946	-0.061843	-0.003897	0.069160	-0.031205	-0.037955
1.790000	-0.037364	-0.064236	-0.026871	0.058659	-0.006058	-0.052601
1.795000	-0.016654	-0.065080	-0.048426	0.047189	0.018344	-0.065533
1.800000	0.001327	-0.064357	-0.065684	0.036390	0.038689	-0.075079
1.805000	0.014989	-0.062731	-0.077720	0.027564	0.053525	-0.081089
1.810000	0.024423	-0.060858	-0.085281	0.021036	0.063338	-0.084373
1.815000	0.031234	-0.058460	-0.089694	0.015719	0.069817	-0.085536
1.820000	0.036865	-0.055398	-0.092264	0.010700	0.074552	-0.085253
1.825000	0.041430	-0.052191	-0.093620	0.006213	0.077971	-0.084184
1.830000	0.043307	-0.049734	-0.093041	0.003711	0.078720	-0.082431
1.835000	0.041353	-0.048410	-0.089763	0.004075	0.075700	-0.079774
1.840000	0.036363	-0.048621	-0.084985	0.007077	0.070060	-0.077137
1.845000	0.029551	-0.050474	-0.080025	0.012080	0.063264	-0.075344
1.850000	0.021068	-0.053766	-0.074835	0.018878	0.055370	-0.074248
1.855000	0.010519	-0.058076	-0.068595	0.027457	0.045676	-0.073134
1.860000	-0.002551	-0.062709	-0.060158	0.037678	0.033259	-0.070937
1.865000	-0.017914	-0.066513	-0.048599	0.048743	0.017716	-0.066460
1.870000	-0.034709	-0.068094	-0.033385	0.059354	-0.000764	-0.058589
1.875000	-0.052514	-0.065644	-0.013130	0.068219	-0.022739	-0.045480
1.880000	-0.070685	-0.057872	0.012814	0.074222	-0.048208	-0.026014
1.885000	-0.088168	-0.045012	0.043156	0.076892	-0.075820	-0.001071
1.890000	-0.104491	-0.028461	0.076030	0.076759	-0.104224	0.027464
1.895000	-0.120380	-0.010580	0.109799	0.075610	-0.132894	0.057284
1.900000	-0.136465	0.006511	0.142976	0.075029	-0.161335	0.086306
1.905000	-0.151912	0.021116	0.173027	0.075515	-0.187604	0.112088
1.910000	-0.165609	0.031496	0.197104	0.077430	-0.209412	0.131982
1.915000	-0.176945	0.035777	0.212722	0.081503	-0.224974	0.143471
1.920000	-0.181438	0.030115	0.211553	0.087367	-0.226894	0.139527
1.925000	-0.161728	0.004038	0.165766	0.091043	-0.189079	0.098036
1.930000	-0.096597	-0.045274	0.051323	0.081910	-0.085402	0.003492
1.935000	0.021589	-0.104512	-0.126101	0.047875	0.085269	-0.133144
1.940000	0.182658	-0.149442	-0.332100	-0.019177	0.297195	-0.278018
1.945000	0.360966	-0.150960	-0.511926	-0.121247	0.503964	-0.382717
1.950000	0.516975	-0.089186	-0.606162	-0.246984	0.648443	-0.401459
1.955000	0.610761	0.036569	-0.574191	-0.373736	0.684132	-0.310396
1.960000	0.620483	0.214023	-0.406460	-0.481802	0.592906	-0.111103
1.965000	0.549783	0.418524	-0.131258	-0.559052	0.393199	0.165853
1.970000	0.423011	0.608125	0.185114	-0.595326	0.137350	0.457977
1.975000	0.273882	0.738920	0.465038	-0.584741	-0.110364	0.695105
1.980000	0.132759	0.786526	0.653768	-0.530749	-0.300804	0.831554
1.985000	0.020151	0.752074	0.731923	-0.445844	-0.410942	0.856786
1.990000	-0.055741	0.653483	0.709224	-0.345106	-0.441652	0.786759
1.995000	-0.098027	0.514107	0.612134	-0.240224	-0.410011	0.650235
2.000000	-0.116039	0.357645	0.473684	-0.139491	-0.340477	0.479968
2.005000	-0.120005	0.206587	0.326592	-0.049988	-0.257842	0.307831
2.010000	-0.117791	0.078874	0.196665	0.022469	-0.181551	0.159083
2.015000	-0.114011	-0.016038	0.097972	0.075084	-0.122388	0.047305
2.020000	-0.110696	-0.077584	0.033112	0.108703	-0.083028	-0.025676
2.025000	-0.107897	-0.110883	-0.002986	0.126313	-0.060571	-0.065742
2.030000	-0.104635	-0.123484	-0.018849	0.131705	-0.049528	-0.082177
2.035000	-0.100893	-0.122648	-0.021755	0.129061	-0.045690	-0.083371
2.040000	-0.097894	-0.114343	-0.016450	0.122535	-0.047022	-0.075513
2.045000	-0.095952	-0.103006	-0.007054	0.114869	-0.051325	-0.063544
2.050000	-0.094071	-0.090992	0.003079	0.106846	-0.056090	-0.050756
2.055000	-0.091557	-0.079161	0.012395	0.098564	-0.060017	-0.038547
2.060000	-0.088399	-0.067948	0.020450	0.090267	-0.062844	-0.027423
2.065000	-0.084494	-0.057192	0.027301	0.081802	-0.064545	-0.017257
2.070000	-0.079206	-0.046481	0.032725	0.072565	-0.064623	-0.007942
2.075000	-0.071867	-0.036351	0.035515	0.062479	-0.061997	-0.000482
2.080000	-0.061885	-0.028392	0.033494	0.052121	-0.055067	0.002946
2.085000	-0.049045	-0.023587	0.025458	0.041934	-0.043015	0.001080
2.090000	-0.033688	-0.021775	0.011913	0.032022	-0.026328	-0.005694
2.095000	-0.016130	-0.022657	-0.006527	0.022393	-0.005545	-0.016849
2.100000	0.002551	-0.025575	-0.028126	0.013293	0.017711	-0.031004
2.105000	0.020832	-0.028853	-0.049685	0.004631	0.040713	-0.045344
2.110000	0.037754	-0.030766	-0.068520	-0.004035	0.061357	-0.057322
2.115000	0.052984	-0.031515	-0.084498	-0.012395	0.079375	-0.066980
2.120000	0.066011	-0.032221	-0.098232	-0.019509	0.094826	-0.075317
2.125000	0.076213	-0.033310	-0.109523	-0.024770	0.107235	-0.082464
2.130000	0.082992	-0.034621	-0.117613	-0.027927	0.115819	-0.087892
2.135000	0.085859	-0.035848	-0.121707	-0.028874	0.119838	-0.090964
2.140000	0.084824	-0.036720	-0.121544	-0.027773	0.119147	-0.091374
2.145000	0.080209	-0.036997	-0.117207	-0.024949	0.113978	-0.089030
2.150000	0.072601	-0.036614	-0.109214	-0.020777	0.104971	-0.084194
2.155000	0.062676	-0.036479	-0.099155	-0.015124	0.093433	-0.078308
2.160000	0.050864	-0.037972	-0.088837	-0.007443	0.080656	-0.073213
2.165000	0.036954	-0.042165	-0.079118	0.003009	0.067014	-0.070023
2.170000	0.020377	-0.049787	-0.070164	0.016979	0.052274	-0.069253
2.175000	0.000769	-0.060056	-0.060825	0.034229	0.035561	-0.069790
2.180000	-0.020180	-0.071477	-0.051297	0.052918	0.017966	-0.070884
2.185000	-0.037835	-0.082742	-0.044907	0.069615	0.004083	-0.073698
2.190000	-0.047648	-0.092819	-0.045171	0.081099	-0.001430	-0.079669
2.195000	-0.047436	-0.101635	-0.054199	0.086066	0.003905	-0.089971
2.200000	-0.037531	-0.109544	-0.072014	0.084914	0.019909	-0.104822
2.205000	-0.020373	-0.117112	-0.096740	0.079377	0.044091	-0.123468
2.210000	0.000429	-0.124485	-0.124914	0.071624	0.072367	-0.143991
2.215000	0.021276	-0.131001	-0.152277	0.063350	0.100201	-0.163551
2.220000	0.039267	-0.135179	-0.174446	0.055375	0.123387	-0.178762
2.225000	0.052761	-0.136086	-0.188847	0.048108	0.139492	-0.187600
2.230000	0.061954	-0.134056	-0.196010	0.041628	0.148936	-0.190564
2.235000	0.068523	-0.129688	-0.198211	0.035314	0.153999	-0.189313
2.240000	0.073858	-0.123937	-0.197795	0.028913	0.156839	-0.185752
2.245000	0.078100	-0.118177	-0.196278	0.023139	0.158412	-0.181551
2.250000	0.079659	-0.114187	-0.193846	0.019935	0.157908	-0.177843
2.255000	0.077452	-0.112999	-0.190451	0.020523	0.154674	-0.175197
2.260000	0.072336	-0.114319	-0.186655	0.024239	0.149528	-0.173768
2.265000	0.065343	-0.117647	-0.182990	0.030197	0.143375	-0.173573
2.270000	0.056552	-0.122398	-0.178950	0.038016	0.135968	-0.173983
2.275000	0.045708	-0.127647	-0.173356	0.047308	0.126476	-0.173784
2.280000	0.032429	-0.132625	-0.165054	0.057848	0.114017	-0.171865
2.285000	0.016921	-0.136078	-0.152998	0.068795	0.098103	-0.166898
2.290000	0.000019	-0.136459	-0.136477	0.078774	0.078806	-0.157579
2.295000	-0.017854	-0.132811	-0.114957	0.086986	0.056062	-0.143048
2.300000	-0.036048	-0.124925	-0.088877	0.092937	0.030501	-0.123438
2.305000	-0.053144	-0.116454	-0.063309	0.097918	0.005869	-0.103786
2.310000	-0.062907	-0.123997	-0.061090	0.107909	-0.001049	-0.106860
2.315000	-0.047725	-0.162680	-0.114955	0.121478	0.038815	-0.160293
2.320000	0.010639	-0.224154	-0.234793	0.123272	0.141700	-0.264973
2.325000	0.117208	-0.278721	-0.395930	0.093250	0.296260	-0.389510
2.330000	0.259255	-0.288216	-0.547470	0.016720	0.465763	-0.482483
2.335000	0.404797	-0.225023	-0.629820	-0.103792	0.597336	-0.493544
2.340000	0.511150	-0.084401	-0.595551	-0.246384	0.638954	-0.392570
2.345000	0.545838	0.117681	-0.428157	-0.383082	0.562336	-0.179254
2.350000	0.500527	0.345025	-0.155502	-0.488179	0.378759	0.109421
2.355000	0.390841	0.544696	0.153855	-0.540132	0.136824	0.403308
2.360000	0.247156	0.670119	0.422962	-0.529589	-0.101502	0.631090
2.365000	0.101393	0.700659	0.599266	-0.463065	-0.287447	0.750512
2.370000	-0.022330	0.643188	0.665518	-0.358452	-0.397129	0.755581
2.375000	-0.111130	0.521536	0.632666	-0.236948	-0.429431	0.666379
2.380000	-0.164264	0.364138	0.528402	-0.115397	-0.399911	0.515308
2.385000	-0.189432	0.197344	0.386776	-0.004567	-0.332674	0.337241
2.390000	-0.197021	0.042464	0.239486	0.089233	-0.252017	0.162784
2.395000	-0.195945	-0.084879	0.111065	0.162134	-0.177252	0.015119
2.400000	-0.192076	-0.176441	0.015635	0.212763	-0.119922	-0.092841
2.405000	-0.188329	-0.232189	-0.043860	0.242787	-0.083409	-0.159377
2.410000	-0.185326	-0.258128	-0.072801	0.256028	-0.064966	-0.191062
2.415000	-0.182105	-0.263278	-0.081173	0.257142	-0.058273	-0.198868
2.420000	-0.178170	-0.256755	-0.078585	0.251104	-0.057495	-0.193609
2.425000	-0.174555	-0.245572	-0.071017	0.242560	-0.059778	-0.182783
2.430000	-0.172116	-0.234106	-0.061991	0.234532	-0.063581	-0.170952
2.435000	-0.170163	-0.223846	-0.053683	0.227481	-0.067250	-0.160232
2.440000	-0.167739	-0.214648	-0.046909	0.220771	-0.069761	-0.151010
2.445000	-0.164595	-0.206702	-0.042107	0.214369	-0.070719	-0.143650
2.450000	-0.160756	-0.200910	-0.040155	0.208808	-0.069629	-0.139179
2.455000	-0.155746	-0.197894	-0.042148	0.204174	-0.065586	-0.138588
2.460000	-0.148913	-0.196749	-0.047836	0.199568	-0.058356	-0.141212
2.465000	-0.139701	-0.196224	-0.056523	0.193947	-0.048023	-0.145924
2.470000	-0.127631	-0.195652	-0.068021	0.186647	-0.034416	-0.152231
2.475000	-0.112825	-0.194286	-0.081461	0.177311	-0.018109	-0.159202
2.480000	-0.095518	-0.191298	-0.095780	0.165593	0.000151	-0.165744
2.485000	-0.076539	-0.186894	-0.110355	0.152093	0.019523	-0.171617
2.490000	-0.057588	-0.181583	-0.123995	0.138086	0.038340	-0.176426
2.495000	-0.039803	-0.174762	-0.134959	0.123879	0.054938	-0.178818
2.500000	-0.023351	-0.166462	-0.143112	0.109589	0.069144	-0.178733
2.505000	-0.008731	-0.158278	-0.149547	0.096422	0.081300	-0.177723
2.510000	0.003157	-0.151486	-0.154644	0.085638	0.091106	-0.176744
2.515000	0.011524	-0.146996	-0.158519	0.078215	0.098174	-0.176389
2.520000	0.015787	-0.144962	-0.160748	0.074579	0.101922	-0.176502
2.525000	0.016056	-0.145024	-0.161080	0.074460	0.102270	-0.176730
2.530000	0.012774	-0.147118	-0.159892	0.077564	0.099689	-0.177253
2.535000	0.006490	-0.151521	-0.158011	0.083733	0.094975	-0.178708
2.540000	-0.002246	-0.158836	-0.156590	0.093001	0.089111	-0.182112
2.545000	-0.012952	-0.169043	-0.156091	0.105075	0.082641	-0.187716
2.550000	-0.025583	-0.181409	-0.155826	0.119507	0.075196	-0.194703
2.555000	-0.040678	-0.195443	-0.154765	0.136324	0.065868	-0.202192
2.560000	-0.058956	-0.210280	-0.151323	0.155443	0.053328	-0.208771
2.565000	-0.079915	-0.224245	-0.144330	0.175607	0.037190	-0.212797
2.570000	-0.099546	-0.236278	-0.136732	0.193888	0.021469	-0.215357
2.575000	-0.112447	-0.246179	-0.133732	0.207052	0.012289	-0.219341
2.580000	-0.115412	-0.253875	-0.138463	0.213207	0.013309	-0.226516
2.585000	-0.108194	-0.259354	-0.151160	0.212204	0.024806	-0.237010
2.590000	-0.092737	-0.263022	-0.170285	0.205397	0.044773	-0.250170
2.595000	-0.072402	-0.265046	-0.192644	0.194826	0.069421	-0.264247
2.600000	-0.050861	-0.264807	-0.213946	0.182251	0.094157	-0.276408
2.605000	-0.031453	-0.262006	-0.230554	0.169429	0.114951	-0.284380
2.610000	-0.016283	-0.257278	-0.240995	0.157941	0.129737	-0.287678
2.615000	-0.005719	-0.251398	-0.245679	0.148446	0.138541	-0.286987
2.620000	0.001617	-0.244800	-0.246417	0.140401	0.143203	-0.283604
2.625000	0.007493	-0.238046	-0.245539	0.133109	0.146088	-0.279198
2.630000	0.012654	-0.231784	-0.244438	0.126514	0.148432	-0.274947
2.635000	0.015891	-0.227044	-0.242934	0.121909	0.149433	-0.271342
2.640000	0.015534	-0.225448	-0.240982	0.121193	0.148100	-0.269293
2.645000	0.011783	-0.227819	-0.239602	0.124728	0.145137	-0.269865
2.650000	0.005814	-0.233549	-0.239363	0.131483	0.141553	-0.273036
2.655000	-0.002028	-0.241438	-0.239410	0.140565	0.137052	-0.277617
2.660000	-0.011791	-0.249909	-0.238119	0.151092	0.130671	-0.281763
2.665000	-0.023854	-0.257382	-0.233528	0.162372	0.121055	-0.283427
2.670000	-0.038319	-0.262373	-0.224055	0.173604	0.107235	-0.280839
2.675000	-0.054377	-0.263682	-0.209305	0.183631	0.089448	-0.273079
2.680000	-0.071099	-0.261362	-0.190263	0.191946	0.068800	-0.260746
2.685000	-0.086138	-0.256362	-0.170224	0.197742	0.048547	-0.246289
2.690000	-0.083595	-0.249278	-0.165683	0.192184	0.047393	-0.239577
2.695000	-0.037757	-0.242511	-0.204754	0.161813	0.096415	-0.258228
2.700000	0.065251	-0.236572	-0.301823	0.098912	0.211930	-0.310842
2.705000	0.219199	-0.225282	-0.444481	0.003512	0.383176	-0.386688
2.710000	0.401222	-0.191635	-0.592857	-0.121005	0.573932	-0.452926
2.715000	0.574138	-0.115524	-0.689662	-0.264781	0.729655	-0.464874
2.720000	0.695188	0.010960	-0.684228	-0.407695	0.796406	-0.388711
2.725000	0.734998	0.182985	-0.552014	-0.529997	0.743056	-0.213059
2.730000	0.689238	0.385422	-0.303816	-0.620455	0.573340	0.047115
2.735000	0.576921	0.585120	0.008198	-0.670905	0.328352	0.342552
2.740000	0.430701	0.738302	0.307600	-0.674924	0.071073	0.603851
2.745000	0.283565	0.813685	0.530120	-0.633498	-0.142348	0.775846
2.750000	0.159690	0.804714	0.645024	-0.556799	-0.280208	0.837007
2.755000	0.071388	0.724991	0.653602	-0.459789	-0.336141	0.795931
2.760000	0.018770	0.596704	0.577933	-0.355344	-0.322833	0.678177
2.765000	-0.006172	0.443466	0.449637	-0.252471	-0.263162	0.515633
2.770000	-0.013948	0.288334	0.302282	-0.158417	-0.182575	0.340992
2.775000	-0.013441	0.151206	0.164647	-0.079539	-0.102819	0.182357
2.780000	-0.010307	0.044761	0.055068	-0.019892	-0.037744	0.057636
2.785000	-0.007176	-0.027603	-0.020427	0.020080	0.007650	-0.027730
2.790000	-0.004609	-0.069559	-0.064950	0.042821	0.034837	-0.077659
2.795000	-0.001827	-0.088251	-0.086425	0.052007	0.048842	-0.100849
2.800000	0.001576	-0.091248	-0.092824	0.051772	0.054502	-0.106274
2.805000	0.004635	-0.084943	-0.089578	0.046365	0.054394	-0.100759
2.810000	0.006626	-0.074384	-0.081010	0.039120	0.050597	-0.089717
2.815000	0.008254	-0.062791	-0.071045	0.031487	0.045784	-0.077270
2.820000	0.010342	-0.051512	-0.061854	0.023770	0.041682	-0.065452
2.825000	0.013040	-0.040445	-0.053484	0.015822	0.038408	-0.054230
2.830000	0.016339	-0.029290	-0.045629	0.007477	0.035778	-0.043255
2.835000	0.020751	-0.018012	-0.038762	-0.001581	0.034360	-0.032778
2.840000	0.026986	-0.007095	-0.034080	-0.011484	0.035256	-0.023773
2.845000	0.035618	0.001876	-0.033742	-0.021647	0.040045	-0.018398
2.850000	0.047070	0.007669	-0.039401	-0.031603	0.049924	-0.018321
2.855000	0.061147	0.010449	-0.050697	-0.041336	0.064573	-0.023237
2.860000	0.077644	0.010727	-0.066917	-0.051021	0.083462	-0.032441
2.865000	0.095803	0.008664	-0.087140	-0.060314	0.105622	-0.045308
2.870000	0.114061	0.005226	-0.108835	-0.068870	0.128689	-0.059819
2.875000	0.131196	0.002393	-0.128804	-0.077128	0.150111	-0.072983
2.880000	0.146753	0.001064	-0.145689	-0.085342	0.168841	-0.083499
2.885000	0.160295	0.000330	-0.159965	-0.092737	0.184902	-0.092165
2.890000	0.171177	-0.000693	-0.171870	-0.098429	0.198058	-0.099630
2.895000	0.178754	-0.002048	-0.180802	-0.102021	0.207589	-0.105568
2.900000	0.182382	-0.003506	-0.185888	-0.103274	0.212621	-0.109347
2.905000	0.181979	-0.004898	-0.186877	-0.102238	0.212959	-0.110721
2.910000	0.177882	-0.005902	-0.183784	-0.099293	0.208808	-0.109515
2.915000	0.170676	-0.006083	-0.176759	-0.095028	0.200591	-0.105563
2.920000	0.161026	-0.005818	-0.166843	-0.089609	0.189295	-0.099686
2.925000	0.149552	-0.006428	-0.155980	-0.082632	0.176399	-0.093766
2.930000	0.136316	-0.009325	-0.145641	-0.073318	0.162788	-0.089470
2.935000	0.120734	-0.015699	-0.136433	-0.060642	0.148476	-0.087833
2.940000	0.102091	-0.025343	-0.127434	-0.044310	0.132516	-0.088206
2.945000	0.080941	-0.036669	-0.117610	-0.025560	0.114634	-0.089073
2.950000	0.061176	-0.048252	-0.109428	-0.007462	0.098499	-0.091036
2.955000	0.048035	-0.058954	-0.106989	0.006304	0.089503	-0.095807
2.960000	0.044600	-0.068413	-0.113013	0.013748	0.090998	-0.104747
2.965000	0.051198	-0.076867	-0.128064	0.014820	0.103497	-0.118317
2.970000	0.066017	-0.084753	-0.150770	0.010817	0.125162	-0.135979
2.975000	0.085689	-0.092386	-0.178075	0.003867	0.152284	-0.156150
2.980000	0.106498	-0.099374	-0.205872	-0.004113	0.180347	-0.176234
2.985000	0.125202	-0.104498	-0.229700	-0.011953	0.204903	-0.192950
2.990000	0.139732	-0.106521	-0.246254	-0.019174	0.222849	-0.203675
2.995000	0.149714	-0.105512	-0.255226	-0.025520	0.233792	-0.208272
3.000000	0.156586	-0.101991	-0.258577	-0.031520	0.239694	-0.208174
3.005000	0.162005	-0.096758	-0.258762	-0.037671	0.242930	-0.205259
3.010000	0.166565	-0.091034	-0.257600	-0.043608	0.244892	-0.201284
3.015000	0.169069	-0.086474	-0.255543	-0.047686	0.245149	-0.197464
3.020000	0.167929	-0.084521	-0.252449	-0.048156	0.242705	-0.194550
3.025000	0.163411	-0.085200	-0.248611	-0.045155	0.237881	-0.192726
3.030000	0.156732	-0.087937	-0.244670	-0.039719	0.231749	-0.192030
3.035000	0.148337	-0.092345	-0.240681	-0.032327	0.224599	-0.192272
3.040000	0.138070	-0.097644	-0.235714	-0.023340	0.215805	-0.192464
3.045000	0.125452	-0.102846	-0.228299	-0.013052	0.204238	-0.191187
3.050000	0.110330	-0.106925	-0.217255	-0.001966	0.189131	-0.187165
3.055000	0.093437	-0.108288	-0.201725	0.008574	0.170412	-0.178986
3.060000	0.075503	-0.105903	-0.181406	0.017551	0.148326	-0.165877
3.065000	0.056996	-0.099296	-0.156292	0.024422	0.123142	-0.147564
3.070000	0.038955	-0.089919	-0.128875	0.029424	0.096897	-0.126321
3.075000	0.024811	-0.089150	-0.113960	0.037146	0.080120	-0.117266
3.080000	0.028780	-0.116038	-0.144818	0.050378	0.100227	-0.150605
3.085000	0.071022	-0.171515	-0.242537	0.058019	0.181034	-0.239053
3.090000	0.161870	-0.232355	-0.394225	0.040695	0.321062	-0.361756
3.095000	0.294668	-0.261599	-0.556268	-0.019092	0.491288	-0.472196
3.100000	0.443588	-0.225581	-0.669168	-0.125866	0.642450	-0.516583
3.105000	0.567210	-0.110915	-0.678125	-0.263442	0.718994	-0.455552
3.110000	0.627537	0.073191	-0.554347	-0.404565	0.682361	-0.277796
3.115000	0.607614	0.297599	-0.310016	-0.522625	0.529794	-0.007169
3.120000	0.515771	0.512634	-0.003137	-0.593749	0.299591	0.294158
3.125000	0.379030	0.666338	0.287308	-0.603543	0.052955	0.550588
3.130000	0.230379	0.728558	0.498179	-0.553642	-0.154615	0.708257
3.135000	0.097090	0.698025	0.600934	-0.459060	-0.290894	0.749954
3.140000	-0.004031	0.594571	0.598602	-0.340948	-0.347931	0.688879
3.145000	-0.068642	0.446182	0.514824	-0.217973	-0.336864	0.554837
3.150000	-0.102428	0.280225	0.382653	-0.102651	-0.280061	0.382713
3.155000	-0.115380	0.119582	0.234963	-0.002426	-0.202271	0.204697
3.160000	-0.116893	-0.018169	0.098724	0.077978	-0.124486	0.046509
3.165000	-0.113744	-0.122022	-0.008278	0.136120	-0.060891	-0.075229
3.170000	-0.109826	-0.189228	-0.079402	0.172659	-0.017565	-0.155094
3.175000	-0.106597	-0.224191	-0.117593	0.190980	0.006349	-0.197329
3.180000	-0.103635	-0.235334	-0.131699	0.195704	0.016202	-0.211906
3.185000	-0.100089	-0.231587	-0.131498	0.191493	0.018134	-0.209627
3.190000	-0.096620	-0.220708	-0.124089	0.183209	0.015859	-0.199068
3.195000	-0.094377	-0.208509	-0.114133	0.174871	0.011406	-0.186277
3.200000	-0.092843	-0.197706	-0.104863	0.167749	0.006939	-0.174688
3.205000	-0.090868	-0.188415	-0.097548	0.161244	0.003857	-0.165101
3.210000	-0.088049	-0.180466	-0.092417	0.155027	0.002522	-0.157549
3.215000	-0.084577	-0.174491	-0.089914	0.149573	0.003082	-0.152654
3.220000	-0.080260	-0.171364	-0.091105	0.145275	0.006261	-0.151537
3.225000	-0.074396	-0.170380	-0.095984	0.141322	0.012464	-0.153786
3.230000	-0.066376	-0.169997	-0.103621	0.136470	0.021503	-0.157973
3.235000	-0.055641	-0.169430	-0.113789	0.129945	0.033572	-0.163517
3.240000	-0.042106	-0.168145	-0.126039	0.121389	0.048459	-0.169848
3.245000	-0.025957	-0.165419	-0.139462	0.110491	0.065532	-0.176023
3.250000	-0.007600	-0.161192	-0.153592	0.097452	0.084288	-0.181740
3.255000	0.011496	-0.156058	-0.167554	0.083462	0.103375	-0.186837
3.260000	0.029800	-0.149796	-0.179596	0.069280	0.120895	-0.190175
3.265000	0.046557	-0.141978	-0.188535	0.055091	0.135730	-0.190821
3.270000	0.061381	-0.133861	-0.195242	0.041847	0.148161	-0.190008
3.275000	0.074021	-0.126833	-0.200854	0.030491	0.158699	-0.189190
3.280000	0.083998	-0.121784	-0.205782	0.021816	0.167304	-0.189120
3.285000	0.090228	-0.119067	-0.209295	0.016650	0.172930	-0.189579
3.290000	0.092055	-0.118425	-0.210480	0.015224	0.174669	-0.189893
3.295000	0.089594	-0.119753	-0.209347	0.017412	0.172594	-0.190006
3.300000	0.083487	-0.123192	-0.206679	0.022924	0.167528	-0.190451
3.305000	0.074542	-0.129371	-0.203914	0.031656	0.160766	-0.192422
3.310000	0.063509	-0.138861	-0.202370	0.043504	0.153506	-0.197010
3.315000	0.050784	-0.151058	-0.201842	0.057893	0.145854	-0.203747
3.320000	0.036083	-0.164925	-0.201007	0.074387	0.136884	-0.211271
3.325000	0.018727	-0.179659	-0.198386	0.092914	0.125350	-0.218264
3.330000	-0.001569	-0.193819	-0.192250	0.112807	0.110090	-0.222897
3.335000	-0.022247	-0.206204	-0.183957	0.131896	0.093363	-0.225260
3.340000	-0.038012	-0.216603	-0.178591	0.147002	0.081164	-0.228165
3.345000	-0.044677	-0.224990	-0.180313	0.155692	0.078310	-0.234002
3.350000	-0.041031	-0.231282	-0.190250	0.157220	0.086151	-0.243371
3.355000	-0.028262	-0.235745	-0.207483	0.152425	0.103473	-0.255898
3.360000	-0.009412	-0.238715	-0.229302	0.143256	0.126953	-0.270209
3.365000	0.011821	-0.239693	-0.251515	0.131562	0.152037	-0.283599
3.370000	0.031985	-0.237980	-0.269965	0.118931	0.174331	-0.293262
3.375000	0.048547	-0.233805	-0.282352	0.106959	0.191045	-0.298004
3.380000	0.060498	-0.228069	-0.288567	0.096747	0.201533	-0.298280
3.385000	0.068600	-0.221402	-0.290003	0.088220	0.207039	-0.295260
3.390000	0.074559	-0.214477	-0.289036	0.080782	0.209921	-0.290703
3.395000	0.079506	-0.208142	-0.287647	0.074268	0.211976	-0.286244
3.400000	0.083053	-0.203308	-0.286361	0.069429	0.213281	-0.282710
3.405000	0.083444	-0.201187	-0.284631	0.067979	0.212508	-0.280487
3.410000	0.080234	-0.202714	-0.282948	0.070714	0.209683	-0.280397
3.415000	0.074594	-0.207675	-0.282269	0.076834	0.206035	-0.282869
3.420000	0.067199	-0.215108	-0.282307	0.085395	0.201788	-0.287183
3.425000	0.057921	-0.223541	-0.281462	0.095621	0.195943	-0.291563
3.430000	0.046365	-0.231322	-0.277686	0.106785	0.187091	-0.293876
3.435000	0.032220	-0.237048	-0.269268	0.118257	0.174064	-0.292321
3.440000	0.016105	-0.239491	-0.255596	0.128972	0.156866	-0.285839
3.445000	-0.001086	-0.238261	-0.237176	0.138187	0.136307	-0.274494
3.450000	-0.019052	-0.234157	-0.215105	0.146191	0.113191	-0.259382
3.455000	-0.036983	-0.228976	-0.191993	0.153551	0.089495	-0.243046
3.460000	-0.053908	-0.223322	-0.169413	0.160059	0.066687	-0.226745
3.465000	-0.069745	-0.216412	-0.146667	0.165212	0.044411	-0.209623
3.470000	-0.085472	-0.208208	-0.122736	0.169556	0.021514	-0.191070
3.475000	-0.101349	-0.199370	-0.098021	0.173620	-0.001922	-0.171699
3.480000	-0.116250	-0.190670	-0.074421	0.177200	-0.024150	-0.153050
3.485000	-0.129322	-0.182998	-0.053676	0.180318	-0.043674	-0.136644
3.490000	-0.140140	-0.176711	-0.036571	0.182934	-0.059795	-0.123139
3.495000	-0.147923	-0.172065	-0.024143	0.184745	-0.071465	-0.113281
3.500000	-0.151671	-0.168864	-0.017193	0.185061	-0.077640	-0.107420
3.505000	-0.151521	-0.166544	-0.015023	0.183635	-0.078807	-0.104828
3.510000	-0.148238	-0.165112	-0.016874	0.180913	-0.075843	-0.105069
3.515000	-0.141515	-0.165127	-0.023612	0.177040	-0.068071	-0.108969
3.520000	-0.130478	-0.166428	-0.035950	0.171419	-0.054576	-0.116843
3.525000	-0.115370	-0.168437	-0.053067	0.163856	-0.035971	-0.127886
3.530000	-0.097129	-0.171191	-0.074062	0.154915	-0.013318	-0.141597
3.535000	-0.076319	-0.174929	-0.098610	0.145058	0.012870	-0.157928
3.540000	-0.053521	-0.179085	-0.125565	0.134295	0.041595	-0.175890
3.545000	-0.029524	-0.182834	-0.153309	0.122605	0.071467	-0.194072
3.550000	-0.004806	-0.186415	-0.181609	0.110402	0.102077	-0.212479
3.555000	0.024770	-0.189992	-0.214762	0.095391	0.138294	-0.233685
3.560000	0.074909	-0.191354	-0.266262	0.067230	0.196975	-0.264205
3.565000	0.163002	-0.187492	-0.350494	0.014139	0.296467	-0.310606
3.570000	0.294232	-0.171513	-0.465745	-0.070852	0.438772	-0.367921
3.575000	0.458207	-0.127454	-0.585661	-0.190960	0.602677	-0.411717
3.580000	0.628749	-0.035460	-0.664209	-0.342536	0.746490	-0.403954
3.585000	0.766389	0.114193	-0.652195	-0.508404	0.819020	-0.310615
3.590000	0.835240	0.316143	-0.519097	-0.664751	0.781926	-0.117175
3.595000	0.819986	0.547993	-0.271994	-0.789803	0.630455	0.159348
3.600000	0.730170	0.766251	0.036080	-0.863959	0.400733	0.463226
3.605000	0.593455	0.922423	0.328968	-0.875192	0.152701	0.722491
3.610000	0.443428	0.987528	0.544100	-0.826162	-0.058123	0.884285
3.615000	0.307993	0.960319	0.652326	-0.732260	-0.198800	0.931060
3.620000	0.204391	0.859635	0.655244	-0.614316	-0.260300	0.874615
3.625000	0.137454	0.712432	0.574978	-0.490681	-0.252604	0.743286
3.630000	0.101963	0.546307	0.444343	-0.374279	-0.197673	0.571952
3.635000	0.087970	0.386774	0.298805	-0.274094	-0.121726	0.395819
3.640000	0.085645	0.253546	0.167900	-0.195832	-0.047490	0.243322
3.645000	0.087857	0.156987	0.069131	-0.141361	0.010811	0.130549
3.650000	0.090783	0.097203	0.006420	-0.108534	0.048707	0.059827
3.655000	0.093086	0.067426	-0.025660	-0.092671	0.068558	0.024114
3.660000	0.095109	0.058112	-0.036997	-0.088462	0.076271	0.012191
3.665000	0.097670	0.060448	-0.037222	-0.091290	0.077880	0.013409
3.670000	0.100362	0.067920	-0.032443	-0.097157	0.076675	0.020483
3.675000	0.102142	0.075829	-0.026313	-0.102751	0.074163	0.028588
3.680000	0.103262	0.081608	-0.021655	-0.106735	0.072121	0.034614
3.685000	0.104704	0.085498	-0.019207	-0.109813	0.071540	0.038273
3.690000	0.106795	0.089130	-0.017665	-0.113117	0.071857	0.041260
3.695000	0.109419	0.093393	-0.016025	-0.117094	0.072425	0.044668
3.700000	0.112984	0.098138	-0.014846	-0.121891	0.073803	0.048089
3.705000	0.118264	0.102766	-0.015498	-0.127611	0.077227	0.050384
3.710000	0.125652	0.106313	-0.019338	-0.133925	0.083710	0.050215
3.715000	0.135534	0.108111	-0.027424	-0.140669	0.094084	0.046585
3.720000	0.147932	0.108649	-0.039282	-0.148137	0.108088	0.040049
3.725000	0.162699	0.109477	-0.053222	-0.157141	0.124662	0.032479
3.730000	0.179695	0.111611	-0.068084	-0.168186	0.143055	0.025131
3.735000	0.197684	0.115506	-0.082178	-0.180820	0.161578	0.019242
3.740000	0.215113	0.121817	-0.093296	-0.194527	0.178060	0.016466
3.745000	0.231104	0.130755	-0.100349	-0.208919	0.191365	0.017555
3.750000	0.245271	0.140644	-0.104626	-0.222808	0.202013	0.020795
3.755000	0.257074	0.148848	-0.108227	-0.234359	0.210907	0.023453
3.760000	0.265948	0.153196	-0.112752	-0.241993	0.218643	0.023351
3.765000	0.271231	0.152537	-0.118694	-0.244662	0.225123	0.019539
3.770000	0.272488	0.147291	-0.125196	-0.242359	0.229603	0.012756
3.775000	0.269745	0.138904	-0.130841	-0.235933	0.231278	0.004655
3.780000	0.263449	0.128370	-0.135078	-0.226217	0.230090	-0.003873
3.785000	0.254257	0.115886	-0.138371	-0.213702	0.226684	-0.012981
3.790000	0.242991	0.101264	-0.141727	-0.198756	0.222117	-0.023361
3.795000	0.230095	0.084588	-0.145507	-0.181682	0.216854	-0.035172
3.800000	0.215163	0.066790	-0.148373	-0.162786	0.209887	-0.047102
3.805000	0.197407	0.048707	-0.148700	-0.142094	0.199825	-0.057731
3.810000	0.176566	0.031421	-0.145144	-0.120081	0.185739	-0.065658
3.815000	0.155221	0.015676	-0.139545	-0.098667	0.170183	-0.071516
3.820000	0.138544	0.002038	-0.136506	-0.081165	0.158800	-0.077635
3.825000	0.130689	-0.008845	-0.139534	-0.070347	0.156013	-0.085666
3.830000	0.132996	-0.016624	-0.149619	-0.067187	0.163168	-0.095980
3.835000	0.144406	-0.021756	-0.166162	-0.070812	0.179306	-0.108495
3.840000	0.162028	-0.025026	-0.187054	-0.079098	0.201542	-0.122444
3.845000	0.182234	-0.026774	-0.209008	-0.089755	0.225884	-0.136129
3.850000	0.201597	-0.027059	-0.228656	-0.100769	0.248407	-0.147637
3.855000	0.217630	-0.025902	-0.243532	-0.110694	0.266252	-0.155558
3.860000	0.229195	-0.024177	-0.253372	-0.118367	0.278610	-0.160243
3.865000	0.236929	-0.022294	-0.259224	-0.123920	0.286454	-0.162534
3.870000	0.242500	-0.019915	-0.262415	-0.128509	0.291513	-0.163004
3.875000	0.247027	-0.017039	-0.264066	-0.132784	0.295080	-0.162296
3.880000	0.250178	-0.014265	-0.264443	-0.136204	0.297116	-0.160912
3.885000	0.250191	-0.012280	-0.262471	-0.137358	0.295985	-0.158627
3.890000	0.246535	-0.011353	-0.257888	-0.135782	0.291229	-0.155447
3.895000	0.240376	-0.011989	-0.252366	-0.131859	0.284485	-0.152625
3.900000	0.232492	-0.014299	-0.246791	-0.125974	0.276714	-0.150740
3.905000	0.222806	-0.018095	-0.240901	-0.118190	0.267721	-0.149531
3.910000	0.210894	-0.022772	-0.233666	-0.108612	0.256667	-0.148054
3.915000	0.196230	-0.027468	-0.223698	-0.097435	0.242445	-0.145011
3.920000	0.179249	-0.030784	-0.210033	-0.085716	0.224752	-0.139035
3.925000	0.160962	-0.031245	-0.192207	-0.074892	0.203902	-0.129010
3.930000	0.142022	-0.027087	-0.169109	-0.066358	0.179631	-0.113274
3.935000	0.123300	-0.017456	-0.140756	-0.061109	0.152453	-0.091344
3.940000	0.105654	-0.003107	-0.108761	-0.059205	0.123792	-0.064587
3.945000	0.089190	0.014032	-0.075158	-0.059595	0.094886	-0.035291
3.950000	0.072940	0.031605	-0.041335	-0.060359	0.065976	-0.005617
3.955000	0.056514	0.047815	-0.008700	-0.060234	0.037651	0.022583
3.960000	0.040896	0.061231	0.020335	-0.058963	0.011871	0.047092
3.965000	0.026887	0.069997	0.043110	-0.055936	-0.009366	0.065302
3.970000	0.015445	0.071969	0.056524	-0.050468	-0.023717	0.074185
3.975000	0.013689	0.059459	0.045770	-0.042232	-0.018522	0.060754
3.980000	0.040594	0.020541	-0.020053	-0.035297	0.035015	0.000282
3.985000	0.114548	-0.041519	-0.156066	-0.042163	0.156239	-0.114076
3.990000	0.239188	-0.107284	-0.346472	-0.076155	0.338131	-0.261976
3.995000	0.401293	-0.148534	-0.549827	-0.145930	0.549129	-0.403198
4.000000	0.571704	-0.136465	-0.708169	-0.251285	0.738935	-0.487650
4.005000	0.708956	-0.057050	-0.766006	-0.376378	0.851569	-0.475191
4.010000	0.776548	0.084698	-0.691850	-0.497241	0.847779	-0.350539
4.015000	0.759588	0.272826	-0.486762	-0.596064	0.719580	-0.123516
4.020000	0.668334	0.477536	-0.190798	-0.661568	0.496020	0.165548
4.025000	0.531022	0.653796	0.122773	-0.684055	0.235702	0.448352
4.030000	0.381276	0.761480	0.380204	-0.659770	0.000619	0.659152
4.035000	0.246724	0.783374	0.536651	-0.594727	-0.167389	0.762117
4.040000	0.144268	0.726696	0.582428	-0.502851	-0.252972	0.755823
4.045000	0.078452	0.612678	0.534226	-0.399024	-0.263141	0.662165
4.050000	0.043826	0.465732	0.421906	-0.294194	-0.218284	0.512478
4.055000	0.030331	0.310924	0.280593	-0.197024	-0.144489	0.341512
4.060000	0.028249	0.172386	0.144137	-0.115837	-0.066908	0.182745
4.065000	0.030657	0.065235	0.034578	-0.055363	-0.002264	0.057627
4.070000	0.033832	-0.007397	-0.041230	-0.015262	0.043337	-0.028075
4.075000	0.036475	-0.051185	-0.087660	0.008493	0.071669	-0.080162
4.080000	0.038982	-0.075085	-0.114067	0.020844	0.088363	-0.109207
4.085000	0.042114	-0.087149	-0.129264	0.026001	0.098945	-0.124946
4.090000	0.045264	-0.093454	-0.138718	0.027823	0.106222	-0.134045
4.095000	0.047216	-0.097821	-0.145036	0.029217	0.110997	-0.140213
4.100000	0.048271	-0.101106	-0.149377	0.030504	0.114112	-0.144616
4.105000	0.049529	-0.101755	-0.151284	0.030153	0.115939	-0.146092
4.110000	0.051493	-0.097661	-0.149154	0.026655	0.115844	-0.142499
4.115000	0.054084	-0.088395	-0.142479	0.019810	0.113486	-0.133296
4.120000	0.057624	-0.074676	-0.132300	0.009845	0.109653	-0.119497
4.125000	0.062915	-0.057195	-0.120110	-0.003303	0.105670	-0.102367
4.130000	0.070533	-0.037886	-0.108419	-0.018849	0.103318	-0.084469
4.135000	0.080567	-0.019273	-0.099840	-0.035388	0.104158	-0.068770
4.140000	0.092971	-0.002734	-0.095705	-0.052099	0.108932	-0.056834
4.145000	0.107925	0.010988	-0.096937	-0.068654	0.118277	-0.049623
4.150000	0.125367	0.020589	-0.104778	-0.084268	0.132874	-0.048606
4.155000	0.143885	0.025239	-0.118647	-0.097644	0.151573	-0.053929
4.160000	0.161760	0.025947	-0.135812	-0.108373	0.171803	-0.063431
4.165000	0.178095	0.024006	-0.154089	-0.116683	0.191786	-0.075103
4.170000	0.192486	0.019819	-0.172667	-0.122575	0.210821	-0.088246
4.175000	0.204366	0.013139	-0.191227	-0.125577	0.228396	-0.102819
4.180000	0.213168	0.003661	-0.209507	-0.125186	0.244031	-0.118845
4.185000	0.218172	-0.008335	-0.226507	-0.121149	0.256736	-0.135587
4.190000	0.219112	-0.021677	-0.240790	-0.113989	0.265524	-0.151535
4.195000	0.216294	-0.035027	-0.251321	-0.104654	0.269978	-0.165324
4.200000	0.210174	-0.047416	-0.257589	-0.093968	0.270063	-0.176095
4.205000	0.201295	-0.057868	-0.259163	-0.082808	0.265845	-0.183037
4.210000	0.190243	-0.066248	-0.256491	-0.071588	0.257921	-0.186333
4.215000	0.177229	-0.072988	-0.250216	-0.060184	0.246785	-0.186602
4.220000	0.162006	-0.078175	-0.240181	-0.048400	0.232203	-0.183802
4.225000	0.144035	-0.082190	-0.226225	-0.035706	0.213769	-0.178063
4.230000	0.123260	-0.084674	-0.207935	-0.022278	0.191215	-0.168938
4.235000	0.102358	-0.085027	-0.187385	-0.010006	0.167283	-0.157277
4.240000	0.086365	-0.083271	-0.169636	-0.001786	0.147802	-0.146016
4.245000	0.079289	-0.079452	-0.158741	0.000094	0.137426	-0.137521
4.250000	0.082288	-0.074080	-0.156368	-0.004739	0.137788	-0.133049
4.255000	0.094322	-0.068626	-0.162947	-0.014836	0.148534	-0.133699
4.260000	0.112505	-0.065024	-0.177530	-0.027413	0.167452	-0.140038
4.265000	0.133145	-0.064124	-0.197269	-0.039849	0.190764	-0.150915
4.270000	0.152677	-0.065674	-0.218351	-0.050231	0.214213	-0.163982
4.275000	0.168483	-0.069796	-0.238278	-0.056977	0.234843	-0.177867
4.280000	0.179599	-0.077023	-0.256622	-0.059222	0.251852	-0.192630
4.285000	0.186881	-0.087650	-0.274531	-0.057291	0.266396	-0.209105
4.290000	0.192138	-0.101038	-0.293176	-0.052597	0.280196	-0.227599
4.295000	0.198184	-0.117452	-0.315636	-0.046611	0.296654	-0.250043
4.300000	0.216690	-0.137579	-0.354270	-0.045675	0.329644	-0.283969
4.305000	0.266593	-0.157820	-0.424413	-0.062800	0.398952	-0.336152
4.310000	0.359533	-0.167082	-0.526615	-0.111111	0.511617	-0.400506
4.315000	0.491573	-0.145230	-0.636802	-0.199961	0.651468	-0.451506
4.320000	0.640056	-0.069961	-0.710017	-0.329144	0.779464	-0.450320
4.325000	0.765625	0.068941	-0.696684	-0.481836	0.844264	-0.362428
4.330000	0.829940	0.265102	-0.564838	-0.632222	0.805275	-0.173053
4.335000	0.814321	0.494915	-0.319406	-0.755888	0.654557	0.101330
4.340000	0.725619	0.714009	-0.011609	-0.831169	0.425639	0.405531
4.345000	0.589945	0.872760	0.282816	-0.844493	0.177321	0.667172
4.350000	0.440132	0.940912	0.500780	-0.797346	-0.035015	0.832361
4.355000	0.303987	0.916364	0.612377	-0.704570	-0.178049	0.882618
4.360000	0.199230	0.817596	0.618367	-0.587064	-0.241989	0.829053
4.365000	0.131239	0.671512	0.540273	-0.463468	-0.236156	0.699624
4.370000	0.095008	0.505737	0.410729	-0.346840	-0.182282	0.529122
4.375000	0.080557	0.345931	0.265374	-0.246233	-0.106704	0.352937
4.380000	0.077997	0.211924	0.133928	-0.167386	-0.032292	0.199678
4.385000	0.080246	0.114303	0.034057	-0.112323	0.026667	0.085656
4.390000	0.083356	0.053543	-0.029813	-0.079039	0.065338	0.013701
4.395000	0.085801	0.023099	-0.062702	-0.062873	0.085738	-0.022865
4.400000	0.087913	0.013389	-0.074523	-0.058487	0.093783	-0.035296
4.405000	0.090579	0.015574	-0.075005	-0.061287	0.095600	-0.034313
4.410000	0.093357	0.023139	-0.070218	-0.067259	0.094440	-0.027181
4.415000	0.095093	0.031259	-0.063834	-0.072949	0.091756	-0.018807
4.420000	0.095942	0.037156	-0.058786	-0.076844	0.089332	-0.012488
4.425000	0.096949	0.041121	-0.055828	-0.079715	0.088206	-0.008491
4.430000	0.098634	0.044897	-0.053738	-0.082867	0.087972	-0.005104
4.435000	0.100903	0.049272	-0.051630	-0.086704	0.088065	-0.001361
4.440000	0.104078	0.054007	-0.050071	-0.091270	0.088998	0.002272
4.445000	0.109043	0.058621	-0.050422	-0.096800	0.092067	0.004733
4.450000	0.116336	0.062314	-0.054021	-0.103143	0.098355	0.004788
4.455000	0.126270	0.064461	-0.061809	-0.110119	0.108587	0.001531
4.460000	0.138814	0.065368	-0.073446	-0.117884	0.122548	-0.004663
4.465000	0.153831	0.066479	-0.087352	-0.127196	0.139247	-0.012051
4.470000	0.171031	0.068726	-0.102305	-0.138424	0.157811	-0.019387
4.475000	0.189043	0.072582	-0.116462	-0.151049	0.176383	-0.025334
4.480000	0.206330	0.078822	-0.127509	-0.164632	0.192742	-0.028110
4.485000	0.222105	0.087640	-0.134464	-0.178831	0.205865	-0.027034
4.490000	0.236031	0.097548	-0.138483	-0.192592	0.216226	-0.023634
4.495000	0.247608	0.106034	-0.141574	-0.204175	0.224694	-0.020519
4.500000	0.256267	0.110809	-0.145457	-0.211931	0.231936	-0.020004
4.505000	0.261290	0.110648	-0.150642	-0.214739	0.237829	-0.023090
4.510000	0.262339	0.105900	-0.156439	-0.212603	0.241781	-0.029178
4.515000	0.259568	0.097868	-0.161700	-0.206366	0.243219	-0.036854
4.520000	0.253316	0.087526	-0.165790	-0.196785	0.241971	-0.045186
4.525000	0.244159	0.075204	-0.168955	-0.184384	0.238512	-0.054127
4.530000	0.232881	0.060695	-0.172186	-0.169496	0.233865	-0.064369
4.535000	0.219871	0.044010	-0.175861	-0.152351	0.228475	-0.076124
4.540000	0.204801	0.026301	-0.178499	-0.133427	0.221298	-0.087871
4.545000	0.186981	0.008418	-0.178563	-0.112813	0.211047	-0.098233
4.550000	0.166115	-0.008854	-0.174970	-0.090795	0.196925	-0.106131
4.555000	0.144615	-0.024769	-0.169384	-0.069193	0.181287	-0.112095
4.560000	0.127559	-0.038619	-0.166178	-0.051350	0.169589	-0.118240
4.565000	0.119267	-0.049755	-0.169022	-0.040132	0.166444	-0.126311
4.570000	0.121217	-0.057808	-0.179025	-0.036610	0.173345	-0.136735
4.575000	0.132495	-0.063131	-0.195626	-0.040047	0.189441	-0.149394
4.580000	0.150219	-0.066507	-0.216726	-0.048331	0.211856	-0.163525
4.585000	0.170643	-0.068251	-0.238894	-0.059116	0.236446	-0.177330
4.590000	0.190240	-0.068392	-0.258632	-0.070349	0.259157	-0.188807
4.595000	0.206416	-0.066996	-0.273411	-0.080494	0.277028	-0.196534
4.600000	0.218018	-0.065032	-0.283050	-0.088326	0.289292	-0.200966
4.605000	0.225646	-0.062959	-0.288605	-0.093928	0.296903	-0.202975
4.610000	0.231030	-0.060355	-0.291385	-0.098539	0.301617	-0.203077
4.615000	0.235323	-0.057192	-0.292515	-0.102844	0.304747	-0.201904
4.620000	0.238235	-0.054166	-0.292401	-0.106272	0.306363	-0.200091
4.625000	0.238114	-0.052001	-0.290116	-0.107452	0.304974	-0.197521
4.630000	0.234402	-0.050981	-0.285384	-0.105898	0.300099	-0.194201
4.635000	0.228182	-0.051622	-0.279803	-0.101937	0.293285	-0.191348
4.640000	0.220227	-0.053932	-0.274160	-0.096010	0.285434	-0.189424
4.645000	0.210430	-0.057634	-0.268064	-0.088217	0.276258	-0.188042
4.650000	0.198366	-0.062202	-0.260567	-0.078614	0.264965	-0.186351
4.655000	0.183582	-0.066880	-0.250462	-0.067377	0.250595	-0.183218
4.660000	0.166584	-0.070335	-0.236919	-0.055569	0.232962	-0.177393
4.665000	0.148412	-0.071160	-0.219572	-0.044601	0.212455	-0.167854
4.670000	0.129604	-0.067478	-0.197082	-0.035868	0.188612	-0.152744
4.675000	0.110997	-0.058149	-0.169146	-0.030512	0.161740	-0.131229
4.680000	0.093447	-0.043848	-0.137296	-0.028636	0.133219	-0.104584
4.685000	0.076969	-0.026607	-0.103576	-0.029077	0.104238	-0.075161
4.690000	0.060557	-0.008797	-0.069353	-0.029884	0.075004	-0.045120
4.695000	0.043888	0.007732	-0.036156	-0.029802	0.046213	-0.016411
4.700000	0.028021	0.021378	-0.006643	-0.028521	0.020014	0.008507
4.705000	0.013899	0.030196	0.016297	-0.025459	-0.001384	0.026843
4.710000	0.002477	0.032201	0.029725	-0.020021	-0.015732	0.035753
4.715000	0.001382	0.020847	0.019465	-0.012834	-0.010441	0.023274
4.720000	0.030970	-0.014108	-0.045078	-0.009735	0.043906	-0.034171
4.725000	0.109828	-0.069567	-0.179395	-0.023245	0.166983	-0.143738
4.730000	0.240467	-0.127928	-0.368395	-0.064974	0.351526	-0.286552
4.735000	0.408360	-0.163165	-0.571525	-0.141564	0.565737	-0.424173
4.740000	0.583880	-0.147538	-0.731417	-0.251922	0.759387	-0.507465
4.745000	0.725597	-0.066720	-0.792317	-0.380403	0.876368	-0.495965
4.750000	0.797004	0.075465	-0.721539	-0.503720	0.876730	-0.373010
4.755000	0.782904	0.264047	-0.518857	-0.604457	0.751571	-0.147114
4.760000	0.693307	0.469703	-0.223603	-0.671464	0.529378	0.142086
4.765000	0.556456	0.647638	0.091182	-0.695183	0.268626	0.426557
4.770000	0.406243	0.757605	0.351362	-0.671947	0.031685	0.640262
4.775000	0.270667	0.782336	0.511670	-0.607951	-0.139143	0.747094
4.780000	0.167058	0.728705	0.561648	-0.517169	-0.227816	0.744985
4.785000	0.100155	0.616942	0.516787	-0.414016	-0.240543	0.654559
4.790000	0.064606	0.470774	0.406168	-0.309101	-0.197201	0.506302
4.795000	0.050517	0.313865	0.263349	-0.210376	-0.122878	0.333254
4.800000	0.048148	0.167774	0.119626	-0.124662	-0.041268	0.165930
4.805000	0.050476	0.048347	-0.002129	-0.057055	0.030372	0.026684
4.810000	0.053643	-0.037448	-0.091090	-0.009350	0.083562	-0.074212
4.815000	0.056150	-0.090901	-0.147051	0.020063	0.117319	-0.137382
4.820000	0.058220	-0.118050	-0.176270	0.034543	0.135383	-0.169926
4.825000	0.060694	-0.126492	-0.187186	0.037988	0.143114	-0.181102
4.830000	0.063199	-0.123097	-0.186296	0.034582	0.144046	-0.178628
4.835000	0.064710	-0.113525	-0.178235	0.028183	0.140264	-0.168448
4.840000	0.065514	-0.101724	-0.167238	0.020905	0.134379	-0.155285
4.845000	0.066672	-0.089598	-0.156270	0.013236	0.128716	-0.141952
4.850000	0.068620	-0.077751	-0.146371	0.005272	0.124125	-0.129396
4.855000	0.071173	-0.066317	-0.137490	-0.002804	0.120472	-0.117668
4.860000	0.074563	-0.055203	-0.129766	-0.011178	0.117970	-0.106792
4.865000	0.079530	-0.044418	-0.123948	-0.020272	0.117478	-0.097206
4.870000	0.086670	-0.034935	-0.121605	-0.029869	0.120247	-0.090378
4.875000	0.096473	-0.028150	-0.124623	-0.039447	0.127650	-0.088203
4.880000	0.109098	-0.024503	-0.133601	-0.048841	0.140122	-0.091281
4.885000	0.124361	-0.023551	-0.147912	-0.058203	0.157197	-0.098994
4.890000	0.141820	-0.024920	-0.166740	-0.067492	0.178147	-0.110655
4.895000	0.160027	-0.027958	-0.187985	-0.076250	0.200924	-0.124675
4.900000	0.177471	-0.030963	-0.208435	-0.084586	0.222803	-0.138216
4.905000	0.193363	-0.032474	-0.225838	-0.092889	0.242026	-0.149137
4.910000	0.207317	-0.032901	-0.240218	-0.100699	0.258384	-0.157686
4.915000	0.218849	-0.033491	-0.252341	-0.107016	0.272042	-0.165025
4.920000	0.227459	-0.034769	-0.262228	-0.111249	0.282721	-0.171472
4.925000	0.232427	-0.036371	-0.268798	-0.113193	0.289382	-0.176189
4.930000	0.233419	-0.037916	-0.271335	-0.112874	0.291420	-0.178546
4.935000	0.230636	-0.039078	-0.269714	-0.110596	0.288877	-0.178281
4.940000	0.224495	-0.039363	-0.263858	-0.106885	0.281950	-0.175065
4.945000	0.215505	-0.038652	-0.254157	-0.102106	0.271159	-0.169053
4.950000	0.204296	-0.038529	-0.242824	-0.095705	0.258145	-0.162439
4.955000	0.191239	-0.040766	-0.232005	-0.086876	0.244360	-0.157484
4.960000	0.176075	-0.046243	-0.222318	-0.074958	0.230012	-0.155054
4.965000	0.158193	-0.055083	-0.213276	-0.059530	0.214468	-0.154937
4.970000	0.137313	-0.066019	-0.203332	-0.041162	0.196671	-0.155510
4.975000	0.115903	-0.077631	-0.193533	-0.022096	0.178653	-0.156556
4.980000	0.099172	-0.088660	-0.187831	-0.006069	0.165701	-0.159632
4.985000	0.091480	-0.098358	-0.189838	0.003972	0.162419	-0.166390
4.990000	0.094083	-0.106846	-0.200929	0.007368	0.170325	-0.177694
4.995000	0.105776	-0.114526	-0.220302	0.005052	0.188261	-0.193313
5.000000	0.123621	-0.121913	-0.245534	-0.000986	0.213132	-0.212146
5.005000	0.143992	-0.128910	-0.272902	-0.008707	0.240694	-0.231986
5.010000	0.163456	-0.134640	-0.298097	-0.016637	0.266478	-0.249841
5.015000	0.179416	-0.137725	-0.317141	-0.024071	0.286687	-0.262616
5.020000	0.190690	-0.137809	-0.328499	-0.030531	0.299754	-0.269223
5.025000	0.198009	-0.135245	-0.333253	-0.036237	0.306724	-0.270487
5.030000	0.203277	-0.130540	-0.333817	-0.041995	0.310091	-0.268096
5.035000	0.207694	-0.124766	-0.332461	-0.047878	0.311859	-0.263980
5.040000	0.210752	-0.119474	-0.330226	-0.052699	0.312334	-0.259635
5.045000	0.210612	-0.116449	-0.327061	-0.054365	0.310425	-0.256061
5.050000	0.206725	-0.116254	-0.322979	-0.052233	0.305824	-0.253591
5.055000	0.200207	-0.118267	-0.318475	-0.047308	0.299461	-0.252153
5.060000	0.191895	-0.121944	-0.313839	-0.040387	0.291986	-0.251599
5.065000	0.181909	-0.126791	-0.308700	-0.031823	0.283253	-0.251430
5.070000	0.169928	-0.131985	-0.301913	-0.021906	0.272417	-0.250511
5.075000	0.155412	-0.136636	-0.292048	-0.010840	0.258341	-0.247500
5.080000	0.138748	-0.139237	-0.277985	0.000283	0.240601	-0.240883
5.085000	0.120864	-0.138440	-0.259304	0.010148	0.219490	-0.229638
5.090000	0.102172	-0.133475	-0.235647	0.018073	0.195040	-0.213113
5.095000	0.083511	-0.124655	-0.208167	0.023754	0.168400	-0.192155
5.100000	0.066797	-0.118613	-0.185411	0.029916	0.145612	-0.175528
5.105000	0.061255	-0.134680	-0.195935	0.042391	0.148489	-0.190880
5.110000	0.086263	-0.182225	-0.268489	0.055404	0.204816	-0.260220
5.115000	0.157344	-0.245926	-0.403270	0.051143	0.323670	-0.374813
5.120000	0.274776	-0.292352	-0.567128	0.010147	0.486073	-0.496221
5.125000	0.420709	-0.284252	-0.704961	-0.078783	0.649905	-0.571122
5.130000	0.558755	-0.199552	-0.758306	-0.207386	0.760405	-0.553019
5.135000	0.647051	-0.039740	-0.686791	-0.350631	0.770094	-0.419462
5.140000	0.658927	0.174024	-0.484903	-0.480904	0.660390	-0.179486
5.145000	0.593039	0.399686	-0.193352	-0.573150	0.454023	0.119127
5.150000	0.470145	0.583138	0.112993	-0.608113	0.206202	0.401911
5.155000	0.322374	0.683643	0.361269	-0.580824	-0.022456	0.603280
5.160000	0.180274	0.688720	0.508447	-0.501714	-0.189471	0.691184
5.165000	0.065030	0.611293	0.546263	-0.390475	-0.277840	0.668315
5.170000	-0.014187	0.477497	0.491684	-0.267493	-0.292064	0.559557
5.175000	-0.059578	0.315650	0.375228	-0.147843	-0.251035	0.398878
5.180000	-0.079855	0.150808	0.230663	-0.040964	-0.179278	0.220242
5.185000	-0.085139	0.002556	0.087695	0.047679	-0.099786	0.052107
5.190000	-0.083615	-0.115308	-0.031693	0.114848	-0.029977	-0.084871
5.195000	-0.080214	-0.196689	-0.116474	0.159870	0.020935	-0.180805
5.200000	-0.077080	-0.243544	-0.166464	0.185112	0.051606	-0.236718
5.205000	-0.074473	-0.263209	-0.188736	0.194961	0.065970	-0.260931
5.210000	-0.071451	-0.264832	-0.193381	0.194153	0.070396	-0.264549
5.215000	-0.068008	-0.256615	-0.188607	0.187421	0.069628	-0.257049
5.220000	-0.065445	-0.244939	-0.179494	0.179201	0.065846	-0.245046
5.225000	-0.064101	-0.233573	-0.169472	0.171862	0.060836	-0.232698
5.230000	-0.062786	-0.223510	-0.160724	0.165293	0.056545	-0.221838
5.235000	-0.060675	-0.214569	-0.153895	0.158912	0.053821	-0.212733
5.240000	-0.057871	-0.207162	-0.149291	0.153017	0.052782	-0.205798
5.245000	-0.054431	-0.202185	-0.147755	0.148157	0.053881	-0.202038
5.250000	-0.049759	-0.199711	-0.149951	0.144032	0.057846	-0.201877
5.255000	-0.043154	-0.198473	-0.155319	0.139503	0.064758	-0.204261
5.260000	-0.034037	-0.197463	-0.163426	0.133656	0.074703	-0.208359
5.265000	-0.022059	-0.196314	-0.174256	0.126078	0.087871	-0.213949
5.270000	-0.007387	-0.194273	-0.186886	0.116429	0.103634	-0.220063
5.275000	0.009774	-0.190782	-0.200557	0.104505	0.121435	-0.225939
5.280000	0.028320	-0.186276	-0.214596	0.091196	0.140248	-0.231443
5.285000	0.046558	-0.180930	-0.227488	0.077580	0.158220	-0.235800
5.290000	0.063462	-0.173944	-0.237406	0.063787	0.173706	-0.237493
5.295000	0.078646	-0.165735	-0.244381	0.050281	0.186499	-0.236780
5.300000	0.091506	-0.157933	-0.249439	0.038352	0.196845	-0.235197
5.305000	0.101667	-0.151728	-0.253396	0.028903	0.204995	-0.233898
5.310000	0.108520	-0.147884	-0.256405	0.022727	0.210689	-0.233416
5.315000	0.111405	-0.146405	-0.257810	0.020207	0.213166	-0.233373
5.320000	0.110287	-0.146971	-0.257257	0.021180	0.212201	-0.233381
5.325000	0.105527	-0.149579	-0.255106	0.025433	0.208211	-0.233645
5.330000	0.097717	-0.154562	-0.252280	0.032819	0.202071	-0.234890
5.335000	0.087568	-0.162667	-0.250235	0.043358	0.195031	-0.238389
5.340000	0.075700	-0.173762	-0.249461	0.056616	0.187732	-0.244348
5.345000	0.062071	-0.186816	-0.248886	0.072021	0.179531	-0.251552
5.350000	0.045952	-0.201235	-0.247187	0.089653	0.169244	-0.258897
5.355000	0.026626	-0.215899	-0.242525	0.109277	0.155394	-0.264671
5.360000	0.005362	-0.229173	-0.234535	0.129217	0.138505	-0.267722
5.365000	-0.013197	-0.240402	-0.227205	0.146415	0.123558	-0.269973
5.370000	-0.024084	-0.249562	-0.225478	0.157990	0.116275	-0.274265
5.375000	-0.025056	-0.256557	-0.231501	0.162589	0.119191	-0.281780
5.380000	-0.016368	-0.261497	-0.245129	0.160425	0.132075	-0.292500
5.385000	-0.000194	-0.264933	-0.264739	0.153071	0.152735	-0.305806
5.390000	0.020035	-0.266756	-0.286790	0.142444	0.177146	-0.319590
5.395000	0.040677	-0.266084	-0.306761	0.130139	0.200594	-0.330732
5.400000	0.058634	-0.262687	-0.321322	0.117810	0.219368	-0.337178
5.405000	0.072143	-0.257389	-0.329532	0.106951	0.231907	-0.338859
5.410000	0.081230	-0.250992	-0.332221	0.098012	0.238706	-0.336718
5.415000	0.087563	-0.243992	-0.331554	0.090314	0.241977	-0.332291
5.420000	0.092726	-0.237074	-0.329799	0.083339	0.243945	-0.327284
5.425000	0.096936	-0.231144	-0.328080	0.077485	0.245383	-0.322868
5.430000	0.098638	-0.227528	-0.326166	0.074415	0.245261	-0.319676
5.435000	0.096584	-0.227471	-0.324054	0.075568	0.242855	-0.318423
5.440000	0.091435	-0.231086	-0.322521	0.080628	0.238998	-0.319625
5.445000	0.084303	-0.237542	-0.321845	0.088472	0.234490	-0.322962
5.450000	0.075392	-0.245650	-0.321041	0.098298	0.228881	-0.327179
5.455000	0.064484	-0.253914	-0.318398	0.109368	0.221057	-0.330424
5.460000	0.051100	-0.260741	-0.311841	0.121036	0.209544	-0.330580
5.465000	0.035333	-0.264691	-0.300024	0.132420	0.193618	-0.326038
5.470000	0.018044	-0.264958	-0.283002	0.142556	0.173809	-0.316365
5.475000	-0.000022	-0.261770	-0.261749	0.151146	0.151108	-0.302254
5.480000	-0.013519	-0.256285	-0.242766	0.155771	0.132356	-0.288127
5.485000	-0.001903	-0.250035	-0.248131	0.145457	0.142160	-0.287616
5.490000	0.058807	-0.244698	-0.303504	0.107324	0.209180	-0.316504
5.495000	0.176694	-0.238461	-0.415155	0.035661	0.341704	-0.377365
5.500000	0.340446	-0.222501	-0.562947	-0.068095	0.521574	-0.453478
5.505000	0.523342	-0.178127	-0.701469	-0.199310	0.707144	-0.507834
5.510000	0.685302	-0.087622	-0.772924	-0.345071	0.841907	-0.496836
5.515000	0.785627	0.052769	-0.732858	-0.484048	0.876697	-0.392649
5.520000	0.801250	0.235555	-0.565695	-0.598599	0.789206	-0.190607
5.525000	0.734615	0.441471	-0.293144	-0.679014	0.593377	0.085637
5.530000	0.609554	0.632745	0.023190	-0.717241	0.338537	0.378704
5.535000	0.459964	0.766873	0.306909	-0.708314	0.088366	0.619948
5.540000	0.316813	0.818930	0.502117	-0.655721	-0.106985	0.762706
5.545000	0.201316	0.788915	0.587598	-0.571710	-0.223020	0.794730
5.550000	0.122373	0.693776	0.571404	-0.471204	-0.259248	0.730452
5.555000	0.077411	0.556330	0.478919	-0.365890	-0.231811	0.597701
5.560000	0.057368	0.400266	0.342899	-0.264215	-0.164852	0.429066
5.565000	0.052051	0.248252	0.196201	-0.173380	-0.083225	0.256605
5.570000	0.053359	0.118580	0.065221	-0.099269	-0.006848	0.106117
5.575000	0.056347	0.021377	-0.034970	-0.044874	0.052722	-0.007847
5.580000	0.058794	-0.042280	-0.101073	-0.009534	0.092299	-0.082765
5.585000	0.060503	-0.077319	-0.137822	0.009709	0.114503	-0.124212
5.590000	0.062512	-0.091157	-0.153669	0.016538	0.124812	-0.141350
5.595000	0.065055	-0.091107	-0.156161	0.015041	0.127719	-0.142760
5.600000	0.067046	-0.083243	-0.150289	0.009351	0.125479	-0.134830
5.605000	0.068046	-0.072119	-0.140165	0.002352	0.120210	-0.122562
5.610000	0.068960	-0.060112	-0.129072	-0.005108	0.114334	-0.109226
5.615000	0.070532	-0.048181	-0.118713	-0.012904	0.109260	-0.096356
5.620000	0.072743	-0.036885	-0.109628	-0.020702	0.105292	-0.084590
5.625000	0.075667	-0.026170	-0.101837	-0.028577	0.102482	-0.073905
5.630000	0.079955	-0.015577	-0.095532	-0.037169	0.101318	-0.064149
5.635000	0.086246	-0.005532	-0.091778	-0.046600	0.102782	-0.056181
5.640000	0.095043	0.002407	-0.092637	-0.056263	0.108357	-0.052094
5.645000	0.106645	0.007322	-0.099323	-0.065799	0.118916	-0.053117
5.650000	0.120789	0.009432	-0.111357	-0.075183	0.134030	-0.058847
5.655000	0.137240	0.009157	-0.128082	-0.084522	0.153184	-0.068661
5.660000	0.155042	0.006851	-0.148191	-0.093469	0.175072	-0.081603
5.665000	0.172694	0.003766	-0.168928	-0.101879	0.197236	-0.095357
5.670000	0.189193	0.001635	-0.187558	-0.110175	0.217517	-0.107343
5.675000	0.204148	0.000763	-0.203384	-0.118305	0.235288	-0.116983
5.680000	0.216993	0.000075	-0.216918	-0.125325	0.250519	-0.125194
5.685000	0.226901	-0.001173	-0.228074	-0.130324	0.262680	-0.132356
5.690000	0.233067	-0.002865	-0.235932	-0.132907	0.270777	-0.137869
5.695000	0.235066	-0.004602	-0.239668	-0.133059	0.274088	-0.141029
5.700000	0.233156	-0.006032	-0.239189	-0.131130	0.272708	-0.141578
5.705000	0.227810	-0.006728	-0.234537	-0.127642	0.266936	-0.139294
5.710000	0.219545	-0.006427	-0.225972	-0.123044	0.257219	-0.134176
5.715000	0.208983	-0.006138	-0.215121	-0.117112	0.244856	-0.127744
5.720000	0.196567	-0.007461	-0.204029	-0.109180	0.231284	-0.122104
5.725000	0.182106	-0.011511	-0.193616	-0.098493	0.216923	-0.118430
5.730000	0.165077	-0.019099	-0.184176	-0.084280	0.201641	-0.117361
5.735000	0.144987	-0.029528	-0.174515	-0.066660	0.184464	-0.117804
5.740000	0.123205	-0.041256	-0.164462	-0.047313	0.166084	-0.118771
5.745000	0.104226	-0.052865	-0.157092	-0.029653	0.150872	-0.121219
5.750000	0.092775	-0.063259	-0.156035	-0.017041	0.143650	-0.126609
5.755000	0.091277	-0.072333	-0.163610	-0.010937	0.147159	-0.136222
5.760000	0.099639	-0.080338	-0.179977	-0.011144	0.161436	-0.150293
5.765000	0.115637	-0.087859	-0.203496	-0.016037	0.184252	-0.168214
5.770000	0.135662	-0.095178	-0.230840	-0.023373	0.211600	-0.188227
5.775000	0.155941	-0.101704	-0.257645	-0.031313	0.238784	-0.207470
5.780000	0.173375	-0.105980	-0.279355	-0.038910	0.261384	-0.222473
5.785000	0.186292	-0.107082	-0.293374	-0.045732	0.276935	-0.231204
5.790000	0.194794	-0.105255	-0.300049	-0.051695	0.285698	-0.234002
5.795000	0.200602	-0.100992	-0.301594	-0.057510	0.289943	-0.232433
5.800000	0.205265	-0.095365	-0.300629	-0.063451	0.292078	-0.228627
5.805000	0.208908	-0.089832	-0.298739	-0.068749	0.293090	-0.224341
5.810000	0.209916	-0.086012	-0.295928	-0.071536	0.292049	-0.220513
5.815000	0.207157	-0.084949	-0.292106	-0.070557	0.288250	-0.217693
5.820000	0.201433	-0.086345	-0.287778	-0.066446	0.282445	-0.216000
5.825000	0.193803	-0.089548	-0.283351	-0.060192	0.275485	-0.215293
5.830000	0.184492	-0.094065	-0.278557	-0.052208	0.267341	-0.215133
5.835000	0.173277	-0.099140	-0.272418	-0.042803	0.257322	-0.214519
5.840000	0.159510	-0.103934	-0.263444	-0.032087	0.244193	-0.212106
5.845000	0.143211	-0.107258	-0.250469	-0.020757	0.227291	-0.206534
5.850000	0.125324	-0.107669	-0.232993	-0.010194	0.206875	-0.196681
5.855000	0.106489	-0.104277	-0.210766	-0.001277	0.183167	-0.181890
5.860000	0.087473	-0.096782	-0.184255	0.005375	0.156882	-0.162256
5.865000	0.069558	-0.088229	-0.157787	0.010779	0.131258	-0.142037
5.870000	0.058204	-0.094329	-0.152532	0.020857	0.121669	-0.142525
5.875000	0.070407	-0.131149	-0.201556	0.035069	0.157018	-0.192087
5.880000	0.124893	-0.192017	-0.316911	0.038754	0.255075	-0.293830
5.885000	0.227841	-0.248350	-0.476192	0.011841	0.406474	-0.418315
5.890000	0.367746	-0.262038	-0.629784	-0.061031	0.575924	-0.514894
5.895000	0.513672	-0.204069	-0.717741	-0.178749	0.710957	-0.532207
5.900000	0.622914	-0.068193	-0.691107	-0.320268	0.758650	-0.438382
5.905000	0.661755	0.130769	-0.530986	-0.457564	0.688629	-0.231065
5.910000	0.620216	0.357974	-0.262242	-0.564758	0.509487	0.055271
5.915000	0.512666	0.560713	0.048047	-0.619715	0.268248	0.351467
5.920000	0.369012	0.691190	0.322178	-0.612107	0.027039	0.585068
5.925000	0.221685	0.727111	0.505426	-0.547787	-0.163818	0.711605
5.930000	0.095558	0.674177	0.578619	-0.444406	-0.278896	0.723302
5.935000	0.004067	0.555813	0.551746	-0.323247	-0.316203	0.639449
5.940000	-0.051700	0.400412	0.452112	-0.201329	-0.290876	0.492205
5.945000	-0.079133	0.234316	0.313449	-0.089595	-0.226657	0.316252
5.950000	-0.088419	0.078779	0.167198	0.005566	-0.147581	0.142015
5.955000	-0.088452	-0.050282	0.038170	0.080098	-0.073105	-0.006993
5.960000	-0.085225	-0.143952	-0.058727	0.132315	-0.015299	-0.117017
5.965000	-0.081880	-0.201641	-0.119761	0.163690	0.021871	-0.185561
5.970000	-0.079320	-0.229251	-0.149931	0.178153	0.040767	-0.218920
5.975000	-0.076774	-0.235559	-0.158785	0.180326	0.047349	-0.227674
5.980000	-0.073612	-0.229231	-0.155619	0.174846	0.047347	-0.222193
5.985000	-0.070707	-0.217498	-0.146791	0.166395	0.043927	-0.210322
5.990000	-0.068990	-0.205477	-0.136488	0.158463	0.038970	-0.197433
5.995000	-0.067751	-0.195142	-0.127391	0.151781	0.034433	-0.186214
6.000000	-0.065956	-0.186295	-0.120338	0.145637	0.031397	-0.177035
6.005000	-0.063429	-0.178788	-0.115359	0.139844	0.029982	-0.169826
6.010000	-0.060275	-0.173237	-0.112962	0.134818	0.030419	-0.165237
6.015000	-0.056029	-0.170243	-0.114215	0.130638	0.033594	-0.164232
6.020000	-0.050052	-0.168997	-0.118946	0.126468	0.039776	-0.166244
6.025000	-0.041809	-0.168355	-0.126547	0.121338	0.048923	-0.170262
6.030000	-0.030829	-0.167709	-0.136880	0.114626	0.061228	-0.175854
6.035000	-0.017226	-0.166385	-0.149159	0.106008	0.076172	-0.182180
6.040000	-0.001069	-0.163596	-0.162527	0.095070	0.093218	-0.188288
6.045000	0.017085	-0.159405	-0.176490	0.082169	0.111761	-0.193929
6.050000	0.035661	-0.154294	-0.189955	0.068493	0.130259	-0.198753
6.055000	0.053220	-0.147745	-0.200966	0.054574	0.146754	-0.201328
6.060000	0.069136	-0.139684	-0.208820	0.040731	0.160478	-0.201209
6.065000	0.082868	-0.131687	-0.214556	0.028186	0.171718	-0.199903
6.070000	0.093766	-0.125048	-0.218814	0.018061	0.180468	-0.198529
6.075000	0.101370	-0.120628	-0.221998	0.011119	0.186696	-0.197815
6.080000	0.105192	-0.118557	-0.223749	0.007716	0.189914	-0.197630
6.085000	0.105245	-0.118509	-0.223754	0.007658	0.189948	-0.197606
6.090000	0.101756	-0.120400	-0.222156	0.010764	0.187011	-0.197774
6.095000	0.095049	-0.124411	-0.219460	0.016953	0.181582	-0.198534
6.100000	0.085686	-0.131309	-0.216995	0.026341	0.174752	-0.201093
6.105000	0.074296	-0.141466	-0.215762	0.038781	0.167465	-0.206246
6.110000	0.061066	-0.154226	-0.215292	0.053786	0.159555	-0.213341
6.115000	0.045540	-0.168694	-0.214233	0.071103	0.149980	-0.221083
6.120000	0.026972	-0.183773	-0.210744	0.090529	0.137246	-0.227774
6.125000	0.005614	-0.197729	-0.203343	0.110918	0.120642	-0.231559
6.130000	-0.014898	-0.209545	-0.194648	0.129582	0.103779	-0.233361
6.135000	-0.029167	-0.219281	-0.190114	0.143442	0.092922	-0.236364
6.140000	-0.033648	-0.226954	-0.193306	0.150459	0.092178	-0.242637
6.145000	-0.027781	-0.232551	-0.204770	0.150303	0.102184	-0.252487
6.150000	-0.013440	-0.236487	-0.223046	0.144295	0.121016	-0.265311
6.155000	0.005955	-0.238846	-0.244801	0.134460	0.144774	-0.279234
6.160000	0.026767	-0.238896	-0.265662	0.122473	0.168834	-0.291307
6.165000	0.045799	-0.236242	-0.282041	0.109952	0.189279	-0.299231
6.170000	0.060901	-0.231545	-0.292446	0.098522	0.204005	-0.302527
6.175000	0.071388	-0.225725	-0.297112	0.089107	0.212754	-0.301860
6.180000	0.078415	-0.219192	-0.297607	0.081278	0.217096	-0.298374
6.185000	0.083746	-0.212506	-0.296251	0.074339	0.219391	-0.293731
6.190000	0.088176	-0.206431	-0.294607	0.068274	0.221000	-0.289274
6.195000	0.090707	-0.202043	-0.292750	0.064280	0.221389	-0.285669
6.200000	0.089609	-0.200704	-0.290313	0.064141	0.219348	-0.283489
6.205000	0.084997	-0.203145	-0.288142	0.068213	0.215432	-0.283645
6.210000	0.078201	-0.208794	-0.286996	0.075398	0.210847	-0.286245
6.215000	0.069745	-0.216523	-0.286268	0.084742	0.205544	-0.290286
6.220000	0.059516	-0.224879	-0.284395	0.095472	0.198557	-0.294029
6.225000	0.046936	-0.232326	-0.279262	0.107035	0.188331	-0.295366
6.230000	0.031775	-0.237516	-0.269291	0.118784	0.173821	-0.292605
6.235000	0.014815	-0.239356	-0.254172	0.129639	0.155299	-0.284938
6.240000	-0.003138	-0.237611	-0.234473	0.138996	0.133562	-0.272558
6.245000	-0.021470	-0.233298	-0.211827	0.147090	0.109903	-0.256993
6.250000	-0.039185	-0.228161	-0.188976	0.154353	0.086482	-0.240834
6.255000	-0.055738	-0.222312	-0.166574	0.160532	0.063991	-0.224523
6.260000	-0.071552	-0.215044	-0.143492	0.165466	0.041535	-0.207000
6.265000	-0.087591	-0.206693	-0.119102	0.169905	0.018193	-0.188097
6.270000	-0.103659	-0.197913	-0.094254	0.174113	-0.005430	-0.168682
6.275000	-0.118586	-0.189032	-0.070446	0.177603	-0.027794	-0.149810
6.280000	-0.131641	-0.180907	-0.049266	0.180449	-0.047559	-0.132890
6.285000	-0.142235	-0.174146	-0.031911	0.182663	-0.063696	-0.118967
6.290000	-0.149464	-0.168936	-0.019473	0.183828	-0.075050	-0.108778
6.295000	-0.152636	-0.165145	-0.012509	0.183471	-0.080903	-0.102568
6.300000	-0.152181	-0.162609	-0.010428	0.181744	-0.081841	-0.099903
6.305000	-0.148622	-0.161749	-0.013127	0.179193	-0.078228	-0.100965
6.310000	-0.141379	-0.162855	-0.021476	0.175649	-0.069226	-0.106423
6.315000	-0.129798	-0.165329	-0.035531	0.170392	-0.054425	-0.115966
6.320000	-0.114448	-0.168482	-0.054033	0.163349	-0.034880	-0.128469
6.325000	-0.096066	-0.172229	-0.076162	0.154900	-0.011492	-0.143408
6.330000	-0.075054	-0.176403	-0.101349	0.145178	0.015182	-0.160360
6.335000	-0.052126	-0.180518	-0.128392	0.134317	0.044032	-0.178349
6.340000	-0.028146	-0.184195	-0.156049	0.122596	0.073845	-0.196440
6.345000	-0.003332	-0.188239	-0.184907	0.110604	0.104832	-0.215436
6.350000	0.029184	-0.192802	-0.221985	0.094465	0.145012	-0.239477
6.355000	0.087401	-0.194947	-0.282348	0.062091	0.213475	-0.275566
6.360000	0.186551	-0.190121	-0.376672	0.002061	0.325177	-0.327238
6.365000	0.327710	-0.168781	-0.496491	-0.091758	0.475853	-0.384094
6.370000	0.496427	-0.112914	-0.609341	-0.221422	0.638415	-0.416994
6.375000	0.662177	-0.004554	-0.666731	-0.379679	0.767245	-0.387566
6.380000	0.784320	0.161474	-0.622846	-0.546054	0.812428	-0.266373
6.385000	0.831134	0.375256	-0.455878	-0.696510	0.743057	-0.046547
6.390000	0.793933	0.608658	-0.185275	-0.809786	0.565346	0.244440
6.395000	0.687969	0.814624	0.126655	-0.867522	0.324075	0.543447
6.400000	0.543984	0.948147	0.404163	-0.861482	0.080725	0.780756
6.405000	0.395020	0.987771	0.592751	-0.798354	-0.114160	0.912514
6.410000	0.266495	0.938739	0.672244	-0.695842	-0.234259	0.930101
6.415000	0.172588	0.823036	0.650448	-0.574824	-0.275892	0.850716
6.420000	0.114865	0.668152	0.553288	-0.452075	-0.253124	0.705198
6.425000	0.086019	0.501496	0.415477	-0.339202	-0.190213	0.529415
6.430000	0.075801	0.347515	0.271714	-0.244402	-0.113110	0.357512
6.435000	0.075075	0.223592	0.148517	-0.172435	-0.042402	0.214837
6.440000	0.077568	0.137231	0.059663	-0.124014	0.010338	0.113677
6.445000	0.080103	0.086427	0.006324	-0.096146	0.042596	0.053549
6.450000	0.081821	0.063368	-0.018453	-0.083825	0.057893	0.025932
6.455000	0.083456	0.058319	-0.025136	-0.081854	0.062696	0.019158
6.460000	0.085716	0.062993	-0.022723	-0.085857	0.062607	0.023250
6.465000	0.087818	0.071272	-0.016546	-0.091851	0.060255	0.031596
6.470000	0.088778	0.078747	-0.010031	-0.096720	0.057048	0.039673
6.475000	0.089157	0.083768	-0.005390	-0.099838	0.054587	0.045252
6.480000	0.090061	0.087252	-0.002809	-0.102372	0.053619	0.048753
6.485000	0.091816	0.090762	-0.001054	-0.105411	0.053619	0.051793
6.490000	0.094208	0.094936	0.000728	-0.109202	0.053971	0.055231
6.495000	0.097643	0.099587	0.001944	-0.113871	0.055252	0.058619
6.500000	0.102959	0.104021	0.001062	-0.119500	0.058830	0.060670
6.505000	0.110709	0.107227	-0.003482	-0.125826	0.065928	0.059898
6.510000	0.121282	0.108712	-0.012570	-0.132787	0.077279	0.055507
6.515000	0.134487	0.109256	-0.025231	-0.140725	0.092213	0.048512
6.520000	0.150083	0.110360	-0.039723	-0.150367	0.109585	0.040782
6.525000	0.167460	0.112839	-0.054622	-0.161831	0.128219	0.033612
6.530000	0.185124	0.117216	-0.067908	-0.174556	0.146088	0.028468
6.535000	0.201856	0.124105	-0.077751	-0.188193	0.161431	0.026762
6.540000	0.217121	0.133314	-0.083807	-0.202324	0.173741	0.028583
6.545000	0.230470	0.142896	-0.087573	-0.215563	0.183622	0.031941
6.550000	0.241159	0.150289	-0.090870	-0.226003	0.191697	0.034306
6.555000	0.248504	0.153550	-0.094954	-0.232126	0.198295	0.033830
6.560000	0.251867	0.151880	-0.099987	-0.233103	0.203143	0.029960
6.565000	0.251236	0.145949	-0.105287	-0.229315	0.205839	0.023477
6.570000	0.247024	0.137031	-0.109993	-0.221734	0.206124	0.015610
6.575000	0.239772	0.125990	-0.113782	-0.211172	0.204124	0.007048
6.580000	0.230030	0.112964	-0.117066	-0.198028	0.200396	-0.002368
6.585000	0.218348	0.097702	-0.120646	-0.182472	0.195718	-0.013246
6.590000	0.204802	0.080573	-0.124229	-0.164761	0.189966	-0.025205
6.595000	0.188876	0.062635	-0.126241	-0.145210	0.181932	-0.036723
6.600000	0.169929	0.044604	-0.125325	-0.123861	0.170465	-0.046604
6.605000	0.148246	0.027400	-0.120847	-0.101409	0.155361	-0.053951
6.610000	0.127299	0.011912	-0.115386	-0.080374	0.140114	-0.059741
6.615000	0.112348	-0.001049	-0.113397	-0.064259	0.130334	-0.066075
6.620000	0.106911	-0.010969	-0.117880	-0.055393	0.129783	-0.074391
6.625000	0.111612	-0.017872	-0.129484	-0.054120	0.139197	-0.085076
6.630000	0.124827	-0.022427	-0.147255	-0.059121	0.157087	-0.097966
6.635000	0.143218	-0.025249	-0.168467	-0.068110	0.179951	-0.111842
6.640000	0.163123	-0.026629	-0.189752	-0.078805	0.203733	-0.124927
6.645000	0.181386	-0.026533	-0.207919	-0.089404	0.224765	-0.135361
6.650000	0.195866	-0.025260	-0.221126	-0.098499	0.240750	-0.142251
6.655000	0.205877	-0.023751	-0.229627	-0.105150	0.251438	-0.146288
6.660000	0.212412	-0.022049	-0.234461	-0.109907	0.258002	-0.148096
6.665000	0.217098	-0.019651	-0.236749	-0.113996	0.262028	-0.148032
6.670000	0.220729	-0.016723	-0.237452	-0.117783	0.264531	-0.146748
6.675000	0.222552	-0.014160	-0.236712	-0.120315	0.265157	-0.144841
6.680000	0.220982	-0.012430	-0.233412	-0.120408	0.262345	-0.141937
6.685000	0.216047	-0.011770	-0.227817	-0.117939	0.256264	-0.138325
6.690000	0.208992	-0.012618	-0.221610	-0.113376	0.248608	-0.135232
6.695000	0.200312	-0.015046	-0.215358	-0.106963	0.239987	-0.133024
6.700000	0.189849	-0.018902	-0.208751	-0.098696	0.230132	-0.131435
6.705000	0.177057	-0.023547	-0.200604	-0.088629	0.218043	-0.129414
6.710000	0.161740	-0.027949	-0.189689	-0.077244	0.202897	-0.125653
6.715000	0.144790	-0.030622	-0.175412	-0.065915	0.184869	-0.118954
6.720000	0.126832	-0.030189	-0.157021	-0.055797	0.163882	-0.108085
6.725000	0.108087	-0.024905	-0.132992	-0.048025	0.139187	-0.091162
6.730000	0.089444	-0.014223	-0.103667	-0.043429	0.111493	-0.068064
6.735000	0.071685	0.000820	-0.070865	-0.041860	0.082301	-0.040440
6.740000	0.054718	0.018105	-0.036613	-0.042045	0.052730	-0.010685
6.745000	0.037738	0.035528	-0.002210	-0.042300	0.023064	0.019236
6.750000	0.020864	0.051344	0.030480	-0.041689	-0.005552	0.047241
6.755000	0.005203	0.063855	0.058651	-0.039871	-0.030858	0.070729
6.760000	-0.008482	0.071077	0.079559	-0.036139	-0.050830	0.086969
6.765000	-0.018356	0.070309	0.088665	-0.029995	-0.061788	0.091784
6.770000	-0.013727	0.050965	0.064693	-0.021500	-0.045276	0.066775
6.775000	0.025388	0.003907	-0.021481	-0.016913	0.027059	-0.010146
6.780000	0.113502	-0.061920	-0.175421	-0.029781	0.166810	-0.137029
6.785000	0.249485	-0.124017	-0.373502	-0.072438	0.359681	-0.287243
6.790000	0.416267	-0.152981	-0.569247	-0.152008	0.568986	-0.416979
6.795000	0.580878	-0.122677	-0.703555	-0.264542	0.741568	-0.477025
6.800000	0.701386	-0.024842	-0.726228	-0.390603	0.824233	-0.433630
6.805000	0.746015	0.132003	-0.614012	-0.506924	0.785212	-0.278288
6.810000	0.706750	0.328915	-0.377835	-0.597941	0.626185	-0.028244
6.815000	0.599492	0.530833	-0.068659	-0.652593	0.385757	0.266836
6.820000	0.455215	0.691586	0.236371	-0.662105	0.126350	0.535756
6.825000	0.306833	0.776271	0.469438	-0.625331	-0.093880	0.719210
6.830000	0.179410	0.775030	0.595620	-0.551046	-0.240299	0.791345
6.835000	0.086654	0.700421	0.613768	-0.454418	-0.304329	0.758747
6.840000	0.029822	0.575227	0.545405	-0.349325	-0.297672	0.646997
6.845000	0.001587	0.423832	0.422245	-0.245615	-0.242867	0.488483
6.850000	-0.008268	0.271397	0.279665	-0.151918	-0.166238	0.318155
6.855000	-0.008788	0.140353	0.149141	-0.075959	-0.091180	0.167139
6.860000	-0.006095	0.042598	0.048693	-0.021075	-0.031632	0.052707
6.865000	-0.003316	-0.021417	-0.018100	0.014279	0.008536	-0.022815
6.870000	-0.001275	-0.058741	-0.057466	0.034651	0.032442	-0.067092
6.875000	0.000842	-0.078464	-0.079306	0.044815	0.046273	-0.091088
6.880000	0.003647	-0.088245	-0.091892	0.048842	0.055160	-0.104002
6.885000	0.006178	-0.093779	-0.099957	0.050576	0.061277	-0.111853
6.890000	0.007528	-0.098193	-0.105721	0.052345	0.065384	-0.117730
6.895000	0.008372	-0.101454	-0.109826	0.053741	0.068242	-0.121983
6.900000	0.009687	-0.101395	-0.111082	0.052948	0.069726	-0.122674
6.905000	0.011688	-0.096083	-0.107770	0.048725	0.068969	-0.117694
6.910000	0.014311	-0.085535	-0.099846	0.041121	0.065909	-0.107030
6.915000	0.018074	-0.070581	-0.088655	0.030315	0.061620	-0.091935
6.920000	0.023681	-0.052301	-0.075982	0.016524	0.057541	-0.074064
6.925000	0.031658	-0.033048	-0.064705	0.000802	0.055635	-0.056438
6.930000	0.042618	-0.015073	-0.057691	-0.015903	0.057913	-0.042010
6.935000	0.056312	0.000637	-0.055675	-0.032879	0.064656	-0.031776
6.940000	0.072332	0.013364	-0.058968	-0.049476	0.075806	-0.026330
6.945000	0.090048	0.021859	-0.068189	-0.064609	0.091358	-0.026749
6.950000	0.108026	0.025614	-0.082411	-0.077157	0.109949	-0.032792
6.955000	0.124954	0.025832	-0.099123	-0.087056	0.129371	-0.042315
6.960000	0.140176	0.023663	-0.116513	-0.094592	0.148199	-0.053607
6.965000	0.153345	0.019099	-0.134246	-0.099561	0.166041	-0.066480
6.970000	0.164032	0.011600	-0.152432	-0.101401	0.182710	-0.081309
6.975000	0.171612	0.001070	-0.170543	-0.099698	0.197543	-0.097845
6.980000	0.175283	-0.011759	-0.187042	-0.094411	0.209188	-0.114778
6.985000	0.174840	-0.025463	-0.200303	-0.086243	0.216589	-0.130346
6.990000	0.170647	-0.038835	-0.209483	-0.076102	0.219468	-0.143366
6.995000	0.163256	-0.050802	-0.214058	-0.064925	0.217842	-0.152917
7.000000	0.153311	-0.060594	-0.213905	-0.053530	0.212012	-0.158482
7.005000	0.141517	-0.068467	-0.209983	-0.042176	0.202938	-0.160763
7.010000	0.128012	-0.074725	-0.202737	-0.030765	0.190958	-0.160193
7.015000	0.112161	-0.079470	-0.191631	-0.018874	0.175394	-0.156520
7.020000	0.093247	-0.083020	-0.176267	-0.005905	0.155604	-0.149699
7.025000	0.071711	-0.084937	-0.156649	0.007636	0.131844	-0.139479
7.030000	0.051217	-0.084783	-0.136000	0.019379	0.108089	-0.127469
7.035000	0.036947	-0.082545	-0.119492	0.026326	0.090320	-0.116646
7.040000	0.032120	-0.078256	-0.110376	0.026637	0.082270	-0.108907
7.045000	0.037304	-0.072690	-0.109995	0.020430	0.085043	-0.105473
7.050000	0.050912	-0.067671	-0.118583	0.009676	0.097858	-0.107534
7.055000	0.069671	-0.064935	-0.134606	-0.002735	0.117940	-0.115205
7.060000	0.089929	-0.064780	-0.154709	-0.014520	0.141241	-0.126722
7.065000	0.108447	-0.066861	-0.175308	-0.024010	0.163826	-0.139816
7.070000	0.123041	-0.071514	-0.194555	-0.029749	0.183364	-0.153615
7.075000	0.133109	-0.079246	-0.212355	-0.031098	0.199453	-0.168355
7.080000	0.139844	-0.090176	-0.230020	-0.028676	0.213541	-0.184865
7.085000	0.144941	-0.103960	-0.248901	-0.023660	0.227384	-0.203724
7.090000	0.152404	-0.121806	-0.274210	-0.017666	0.246306	-0.228640
7.095000	0.176981	-0.143484	-0.320465	-0.019339	0.287200	-0.267861
7.100000	0.237291	-0.163109	-0.400400	-0.042829	0.368171	-0.325342
7.105000	0.341420	-0.166756	-0.508176	-0.100842	0.490515	-0.389672
7.110000	0.480725	-0.132378	-0.613104	-0.201118	0.631522	-0.430404
7.115000	0.627205	-0.039870	-0.667075	-0.339097	0.747252	-0.408155
7.120000	0.739482	0.116190	-0.623293	-0.494022	0.786798	-0.292776
7.125000	0.783099	0.324977	-0.458122	-0.639747	0.716619	-0.076872
7.130000	0.746225	0.557192	-0.189033	-0.752528	0.539972	0.212556
7.135000	0.641593	0.764644	0.123051	-0.811891	0.299380	0.512511
7.140000	0.498451	0.901054	0.402603	-0.808004	0.055337	0.752666
7.145000	0.349409	0.943723	0.594314	-0.746590	-0.141396	0.887986
7.150000	0.220039	0.897116	0.677077	-0.644989	-0.263871	0.908860
7.155000	0.124814	0.783036	0.658222	-0.524147	-0.307963	0.832110
7.160000	0.065764	0.629025	0.563262	-0.401136	-0.287231	0.688367
7.165000	0.035961	0.462449	0.426488	-0.287757	-0.225471	0.513228
7.170000	0.025213	0.307850	0.282637	-0.192294	-0.148623	0.340917
7.175000	0.024355	0.182866	0.158511	-0.119639	-0.077455	0.197094
7.180000	0.027107	0.095276	0.068170	-0.070658	-0.023708	0.094366
7.185000	0.030161	0.043242	0.013081	-0.042379	0.009861	0.032518
7.190000	0.032346	0.019073	-0.013273	-0.029687	0.026338	0.003349
7.195000	0.034247	0.013231	-0.021016	-0.027412	0.031906	-0.004494
7.200000	0.036602	0.017537	-0.019064	-0.031257	0.032139	-0.000882
7.205000	0.038763	0.025979	-0.012784	-0.037379	0.029761	0.007618
7.210000	0.039892	0.034127	-0.005765	-0.042735	0.026360	0.016375
7.215000	0.040488	0.039866	-0.000621	-0.046393	0.023734	0.022658
7.220000	0.041421	0.043854	0.002433	-0.049234	0.022510	0.026723
7.225000	0.043009	0.047725	0.004716	-0.052385	0.022108	0.030277
7.230000	0.045170	0.052052	0.006882	-0.056131	0.022106	0.034025
7.235000	0.048230	0.056570	0.008340	-0.060506	0.023031	0.037475
7.240000	0.053091	0.060749	0.007658	-0.065726	0.026231	0.039495
7.245000	0.060502	0.063799	0.003297	-0.071765	0.033027	0.038738
7.250000	0.070938	0.065248	-0.005690	-0.078627	0.044241	0.034385
7.255000	0.084107	0.065833	-0.018273	-0.086568	0.059109	0.027459
7.260000	0.099687	0.067073	-0.032614	-0.096279	0.076384	0.019895
7.265000	0.117128	0.069675	-0.047453	-0.107851	0.095021	0.012830
7.270000	0.134937	0.074166	-0.060770	-0.120726	0.112991	0.007734
7.275000	0.151807	0.081257	-0.070550	-0.134560	0.128378	0.006182
7.280000	0.167196	0.090729	-0.076466	-0.148913	0.140678	0.008235
7.285000	0.180661	0.100588	-0.080073	-0.162379	0.150535	0.011844
7.290000	0.191552	0.108277	-0.083275	-0.173107	0.158672	0.014435
7.295000	0.199242	0.111842	-0.087400	-0.179604	0.165493	0.014112
7.300000	0.203051	0.110495	-0.092555	-0.181026	0.170668	0.010358
7.305000	0.202853	0.104900	-0.097953	-0.177681	0.173671	0.004011
7.310000	0.198927	0.096280	-0.102648	-0.170438	0.174114	-0.003677
7.315000	0.191748	0.085295	-0.106453	-0.159951	0.172166	-0.012215
7.320000	0.181928	0.072124	-0.109804	-0.146677	0.168432	-0.021755
7.325000	0.170099	0.056659	-0.113440	-0.130919	0.163702	-0.032783
7.330000	0.156448	0.039321	-0.117127	-0.113027	0.157949	-0.044921
7.335000	0.140467	0.021286	-0.119181	-0.093388	0.149907	-0.056520
7.340000	0.121487	0.003590	-0.117896	-0.072213	0.138208	-0.065995
7.345000	0.099770	-0.012997	-0.112767	-0.050098	0.122708	-0.072610
7.350000	0.078714	-0.028094	-0.106808	-0.029225	0.107111	-0.077886
7.355000	0.063609	-0.041090	-0.104699	-0.013001	0.097172	-0.084171
7.360000	0.057979	-0.051265	-0.109244	-0.003877	0.096546	-0.092670
7.365000	0.062445	-0.058357	-0.120802	-0.002360	0.105798	-0.103438
7.370000	0.075419	-0.063037	-0.138456	-0.007148	0.123481	-0.116332
7.375000	0.093772	-0.065937	-0.159710	-0.016071	0.146348	-0.130277
7.380000	0.113961	-0.067253	-0.181214	-0.026967	0.170419	-0.143452
7.385000	0.132644	-0.066979	-0.199622	-0.037912	0.191834	-0.153922
7.390000	0.147452	-0.065420	-0.212871	-0.047361	0.208033	-0.160671
7.395000	0.157633	-0.063650	-0.221283	-0.054261	0.218767	-0.164506
7.400000	0.164272	-0.061887	-0.226158	-0.059112	0.225415	-0.166303
7.405000	0.169151	-0.059553	-0.228703	-0.063276	0.229701	-0.166425
7.410000	0.173190	-0.056559	-0.229749	-0.067337	0.232637	-0.165300
7.415000	0.175506	-0.053681	-0.229187	-0.070335	0.233649	-0.163314
7.420000	0.174256	-0.051665	-0.225921	-0.070778	0.231042	-0.160264
7.425000	0.169340	-0.050960	-0.220300	-0.068347	0.224959	-0.156612
7.430000	0.162056	-0.051935	-0.213991	-0.063578	0.217111	-0.153533
7.435000	0.153108	-0.054433	-0.207541	-0.056970	0.208221	-0.151251
7.440000	0.142453	-0.058196	-0.200648	-0.048646	0.198089	-0.149444
7.445000	0.129597	-0.062672	-0.192269	-0.038639	0.185830	-0.147190
7.450000	0.114237	-0.066984	-0.181221	-0.027281	0.170582	-0.143301
7.455000	0.096979	-0.069739	-0.166718	-0.015727	0.152246	-0.136519
7.460000	0.078615	-0.069424	-0.148039	-0.005307	0.130858	-0.125552
7.465000	0.059636	-0.064184	-0.123820	0.002625	0.105918	-0.108544
7.470000	0.040981	-0.053465	-0.094446	0.007207	0.078189	-0.085397
7.475000	0.023409	-0.038191	-0.061600	0.008535	0.049080	-0.057614
7.480000	0.006750	-0.020524	-0.027274	0.007953	0.019643	-0.027596
7.485000	-0.009932	-0.002813	0.007119	0.007358	-0.009844	0.002486
7.490000	-0.026582	0.013108	0.039691	0.007779	-0.038263	0.030483
7.495000	-0.042057	0.025598	0.067655	0.009502	-0.063343	0.053840
7.500000	-0.055641	0.032778	0.088419	0.013200	-0.083173	0.069973
7.505000	-0.065613	0.032210	0.097822	0.019285	-0.094359	0.075074
7.510000	-0.060502	0.014755	0.075258	0.026412	-0.078381	0.051969
7.515000	-0.018628	-0.027534	-0.008906	0.026651	-0.005613	-0.021038
7.520000	0.074735	-0.086471	-0.161206	0.006776	0.136220	-0.142997
7.525000	0.217231	-0.141518	-0.358750	-0.043713	0.332543	-0.288830
7.530000	0.390404	-0.165270	-0.555674	-0.129981	0.546218	-0.416237
7.535000	0.560658	-0.132137	-0.692795	-0.247407	0.723681	-0.476275
7.540000	0.685891	-0.033074	-0.718965	-0.376904	0.811093	-0.434190
7.545000	0.734204	0.124179	-0.610025	-0.495588	0.776091	-0.280503
7.550000	0.697501	0.321384	-0.376117	-0.588253	0.619853	-0.031600
7.555000	0.591532	0.524289	-0.067242	-0.644219	0.380343	0.263876
7.560000	0.447101	0.686930	0.239829	-0.654733	0.119668	0.535065
7.565000	0.297641	0.774164	0.476522	-0.618807	-0.103277	0.722083
7.570000	0.168895	0.775935	0.607040	-0.545498	-0.252963	0.798460
7.575000	0.075003	0.704106	0.629103	-0.449818	-0.319910	0.769728
7.580000	0.017505	0.580549	0.563044	-0.345287	-0.314967	0.660253
7.585000	-0.010871	0.429023	0.439894	-0.241421	-0.260249	0.501669
7.590000	-0.020611	0.272918	0.293529	-0.145670	-0.181369	0.327038
7.595000	-0.020969	0.132739	0.153708	-0.064531	-0.100849	0.165380
7.600000	-0.018109	0.022173	0.040282	-0.002347	-0.033712	0.036059
7.605000	-0.015182	-0.054396	-0.039214	0.040171	0.013875	-0.054046
7.610000	-0.013076	-0.100011	-0.086935	0.065291	0.042642	-0.107933
7.615000	-0.011021	-0.121452	-0.110431	0.076483	0.057395	-0.133878
7.620000	-0.008404	-0.126218	-0.117814	0.077724	0.063168	-0.140892
7.625000	-0.006117	-0.120755	-0.114637	0.073249	0.062654	-0.135904
7.630000	-0.005008	-0.110320	-0.105312	0.066585	0.057910	-0.124495
7.635000	-0.004349	-0.098293	-0.093945	0.059260	0.051728	-0.110989
7.640000	-0.003144	-0.086116	-0.082972	0.051535	0.046089	-0.097623
7.645000	-0.001169	-0.074280	-0.073112	0.043561	0.041536	-0.085097
7.650000	0.001404	-0.062933	-0.064337	0.035524	0.037955	-0.073479
7.655000	0.004896	-0.051974	-0.056871	0.027180	0.035661	-0.062841
7.660000	0.010055	-0.041468	-0.051523	0.018137	0.035552	-0.053688
7.665000	0.017606	-0.032693	-0.050299	0.008710	0.039205	-0.047915
7.670000	0.028111	-0.026935	-0.055046	-0.000679	0.048010	-0.047331
7.675000	0.041399	-0.024243	-0.065642	-0.009905	0.061800	-0.051895
7.680000	0.057212	-0.024004	-0.081216	-0.019173	0.079922	-0.060749
7.685000	0.074852	-0.025858	-0.100710	-0.028286	0.101360	-0.073074
7.690000	0.092787	-0.028950	-0.121736	-0.036856	0.123855	-0.086999
7.695000	0.109754	-0.031529	-0.141283	-0.045163	0.144936	-0.099773
7.700000	0.125191	-0.032625	-0.157816	-0.053443	0.163394	-0.109951
7.705000	0.138632	-0.033027	-0.171659	-0.060971	0.179146	-0.118175
7.710000	0.149450	-0.033603	-0.183054	-0.066884	0.191971	-0.125087
7.715000	0.157153	-0.034486	-0.191639	-0.070822	0.201375	-0.130553
7.720000	0.161011	-0.035620	-0.196631	-0.072394	0.206485	-0.134091
7.725000	0.160791	-0.036829	-0.197619	-0.071570	0.206928	-0.135359
7.730000	0.156779	-0.037777	-0.194556	-0.068706	0.202844	-0.134138
7.735000	0.149434	-0.037981	-0.187415	-0.064347	0.194480	-0.130133
7.740000	0.139374	-0.037766	-0.177140	-0.058664	0.182739	-0.124076
7.745000	0.127309	-0.038515	-0.165824	-0.051265	0.169241	-0.117975
7.750000	0.113508	-0.041504	-0.155012	-0.041571	0.155030	-0.113459
7.755000	0.097692	-0.047641	-0.145332	-0.028897	0.140310	-0.111413
7.760000	0.079087	-0.056885	-0.135971	-0.012818	0.124164	-0.111345
7.765000	0.057684	-0.067925	-0.125609	0.005913	0.105824	-0.111737
7.770000	0.036773	-0.079313	-0.116085	0.024561	0.088252	-0.112813
7.775000	0.021596	-0.089816	-0.111412	0.039387	0.076792	-0.116179
7.780000	0.015860	-0.099045	-0.114905	0.048027	0.075497	-0.123524
7.785000	0.020441	-0.107301	-0.127743	0.050149	0.085554	-0.135703
7.790000	0.033839	-0.115048	-0.148887	0.046886	0.105497	-0.152383
7.795000	0.052802	-0.122600	-0.175401	0.040298	0.131753	-0.172051
7.800000	0.073529	-0.129592	-0.203121	0.032368	0.159724	-0.192092
7.805000	0.092515	-0.134899	-0.227414	0.024471	0.184711	-0.209182
7.810000	0.107430	-0.137244	-0.244675	0.017213	0.203288	-0.220501
7.815000	0.117584	-0.136580	-0.254164	0.010968	0.214629	-0.225596
7.820000	0.124134	-0.133339	-0.257473	0.005315	0.220321	-0.225635
7.825000	0.128882	-0.128145	-0.257027	-0.000426	0.222805	-0.222379
7.830000	0.132764	-0.122217	-0.254981	-0.006089	0.223864	-0.217775
7.835000	0.134840	-0.117272	-0.252112	-0.010143	0.223407	-0.213264
7.840000	0.133483	-0.114899	-0.248382	-0.010730	0.220470	-0.209740
7.845000	0.128865	-0.115311	-0.244176	-0.007825	0.215375	-0.207550
7.850000	0.122139	-0.117874	-0.240013	-0.002462	0.209088	-0.206626
7.855000	0.113654	-0.122075	-0.235729	0.004862	0.201716	-0.206578
7.860000	0.103176	-0.127219	-0.230395	0.013881	0.192587	-0.206468
7.865000	0.090250	-0.132464	-0.222714	0.024372	0.180690	-0.205062
7.870000	0.074708	-0.136827	-0.211535	0.035864	0.165263	-0.201127
7.875000	0.057278	-0.138641	-0.195919	0.046975	0.146183	-0.193158
7.880000	0.038784	-0.136799	-0.175583	0.056589	0.123765	-0.180353
7.885000	0.019615	-0.130692	-0.150308	0.064130	0.098105	-0.162236
7.890000	0.000783	-0.121397	-0.122181	0.069637	0.070993	-0.140630
7.895000	-0.014685	-0.119394	-0.104710	0.077411	0.051976	-0.129386
7.900000	-0.014254	-0.144422	-0.130168	0.091612	0.066923	-0.158535
7.905000	0.021960	-0.199070	-0.221030	0.102254	0.140291	-0.242545
7.910000	0.106056	-0.261648	-0.367704	0.089831	0.273525	-0.363357
7.915000	0.233736	-0.296204	-0.529940	0.036066	0.440908	-0.476975
7.920000	0.381981	-0.268307	-0.650288	-0.065630	0.595980	-0.530351
7.925000	0.510791	-0.162352	-0.673143	-0.201172	0.683544	-0.482373
7.930000	0.580458	0.014703	-0.565755	-0.343616	0.661766	-0.318150
7.935000	0.570595	0.236636	-0.333959	-0.466055	0.522245	-0.056190
7.940000	0.486444	0.456253	-0.030190	-0.544266	0.298279	0.245987
7.945000	0.353212	0.620419	0.267206	-0.562126	0.049655	0.512470
7.950000	0.203830	0.695374	0.491544	-0.519156	-0.166111	0.685267
7.955000	0.066725	0.676431	0.609706	-0.429061	-0.313490	0.742551
7.960000	-0.039788	0.581363	0.621151	-0.312679	-0.381593	0.694272
7.965000	-0.109736	0.437534	0.547270	-0.189254	-0.379322	0.568576
7.970000	-0.147600	0.272588	0.420188	-0.072162	-0.327813	0.399974
7.975000	-0.162987	0.110229	0.273216	0.030460	-0.251842	0.221382
7.980000	-0.165753	-0.031217	0.134536	0.113720	-0.173371	0.059651
7.985000	-0.163269	-0.139838	0.023430	0.174999	-0.107791	-0.067208
7.990000	-0.159904	-0.211851	-0.051947	0.214632	-0.062329	-0.152304
7.995000	-0.157181	-0.250832	-0.093651	0.235566	-0.036679	-0.198887
8.000000	-0.154723	-0.264839	-0.110116	0.242234	-0.025754	-0.216480
8.005000	-0.151648	-0.262884	-0.111236	0.239330	-0.023332	-0.215999
8.010000	-0.148315	-0.252770	-0.104454	0.231566	-0.025323	-0.206243
8.015000	-0.145960	-0.240395	-0.094435	0.223062	-0.029748	-0.193314
8.020000	-0.144608	-0.228876	-0.084269	0.215631	-0.034837	-0.180794
8.025000	-0.143224	-0.218874	-0.075650	0.209058	-0.039014	-0.170044
8.030000	-0.141196	-0.210353	-0.069157	0.202966	-0.041592	-0.161375
8.035000	-0.138540	-0.203862	-0.065323	0.197686	-0.042272	-0.155414
8.040000	-0.135006	-0.200060	-0.065054	0.193450	-0.040387	-0.153063
8.045000	-0.129896	-0.198484	-0.068588	0.189590	-0.035396	-0.154194
8.050000	-0.122578	-0.197780	-0.075202	0.184959	-0.027353	-0.157606
8.055000	-0.112589	-0.197079	-0.084490	0.178787	-0.016223	-0.162564
8.060000	-0.099881	-0.195876	-0.095994	0.170755	-0.002244	-0.168511
8.065000	-0.084694	-0.193367	-0.108673	0.160538	0.013844	-0.174382
8.070000	-0.067308	-0.189330	-0.122021	0.148170	0.031589	-0.179758
8.075000	-0.048983	-0.184322	-0.135339	0.134698	0.049857	-0.184556
8.080000	-0.031205	-0.178313	-0.147108	0.120965	0.066917	-0.187882
8.085000	-0.014809	-0.170715	-0.155906	0.107112	0.081462	-0.188575
8.090000	-0.000238	-0.162507	-0.162270	0.093961	0.093549	-0.187510
8.095000	0.011927	-0.155163	-0.167090	0.082697	0.103355	-0.186053
8.100000	0.021249	-0.149681	-0.170931	0.074150	0.110955	-0.185105
8.105000	0.027101	-0.146521	-0.173622	0.068947	0.115887	-0.184834
8.110000	0.028941	-0.145486	-0.174427	0.067287	0.117415	-0.184702
8.115000	0.026839	-0.146467	-0.173306	0.069067	0.115554	-0.184621
8.120000	0.021108	-0.149544	-0.170653	0.074152	0.110713	-0.184866
8.125000	0.012362	-0.155198	-0.167561	0.082466	0.103879	-0.186345
8.130000	0.001431	-0.163917	-0.165349	0.093811	0.096290	-0.190102
8.135000	-0.011219	-0.175426	-0.164207	0.107760	0.088328	-0.196087
8.140000	-0.025934	-0.188895	-0.162961	0.124031	0.079113	-0.203144
8.145000	-0.043376	-0.203624	-0.160249	0.142606	0.067477	-0.210082
8.150000	-0.063836	-0.218164	-0.154328	0.162813	0.052245	-0.215058
8.155000	-0.085105	-0.231055	-0.145950	0.182535	0.035129	-0.217664
8.160000	-0.102162	-0.241895	-0.139733	0.198641	0.021692	-0.220333
8.165000	-0.110629	-0.250608	-0.139978	0.208560	0.016945	-0.225505
8.170000	-0.108959	-0.257070	-0.148111	0.211327	0.022605	-0.233932
8.175000	-0.097940	-0.261549	-0.163609	0.207551	0.037914	-0.245465
8.180000	-0.080266	-0.264567	-0.184301	0.199090	0.060064	-0.259154
8.185000	-0.059635	-0.265667	-0.206032	0.187813	0.084523	-0.272335
8.190000	-0.039627	-0.264036	-0.224410	0.175320	0.106684	-0.282004
8.195000	-0.022894	-0.259901	-0.237007	0.163271	0.123619	-0.286890
8.200000	-0.010643	-0.254233	-0.243590	0.152926	0.134491	-0.287418
8.205000	-0.002438	-0.247637	-0.245199	0.144380	0.140158	-0.284539
8.210000	0.003437	-0.240693	-0.244130	0.136980	0.142933	-0.279912
8.215000	0.008283	-0.234210	-0.242493	0.130439	0.144785	-0.275225
8.220000	0.011915	-0.229028	-0.240942	0.125350	0.145987	-0.271337
8.225000	0.012607	-0.226355	-0.238962	0.123407	0.145243	-0.268651
8.230000	0.009625	-0.227280	-0.236905	0.125663	0.142334	-0.267997
8.235000	0.003916	-0.231674	-0.235591	0.131496	0.138279	-0.269775
8.240000	-0.003733	-0.238630	-0.234897	0.139928	0.133463	-0.273391
8.245000	-0.013323	-0.246857	-0.233534	0.150215	0.127139	-0.277354
8.250000	-0.025108	-0.254813	-0.229705	0.161612	0.118124	-0.279736
8.255000	-0.039473	-0.261018	-0.221545	0.173489	0.105119	-0.278608
8.260000	-0.056024	-0.264083	-0.208059	0.184814	0.087777	-0.272592
8.265000	-0.073641	-0.263406	-0.189765	0.194594	0.067044	-0.261639
8.270000	-0.091290	-0.259725	-0.168435	0.202659	0.044539	-0.247198
8.275000	-0.100187	-0.255082	-0.154895	0.205115	0.031585	-0.236701
8.280000	-0.076635	-0.251319	-0.174684	0.189344	0.056608	-0.245953
8.285000	0.000118	-0.248168	-0.248286	0.143211	0.143416	-0.286628
8.290000	0.132380	-0.241450	-0.373830	0.062971	0.292261	-0.355232
8.295000	0.304253	-0.219456	-0.523709	-0.048957	0.478024	-0.429066
8.300000	0.485294	-0.162614	-0.647908	-0.186299	0.654254	-0.467955
8.305000	0.633680	-0.057123	-0.690803	-0.332875	0.764690	-0.431815
8.310000	0.712032	0.096810	-0.615222	-0.466985	0.766290	-0.299305
8.315000	0.704042	0.289214	-0.414829	-0.573456	0.645980	-0.072524
8.320000	0.618648	0.496179	-0.122470	-0.643646	0.427884	0.215761
8.325000	0.483569	0.676440	0.192871	-0.669731	0.167834	0.501897
8.330000	0.333030	0.790375	0.457345	-0.648598	-0.071773	0.720371
8.335000	0.195710	0.819626	0.623916	-0.586204	-0.247225	0.833429
8.340000	0.089610	0.769931	0.680321	-0.496256	-0.341047	0.837303
8.345000	0.020288	0.660929	0.640641	-0.393300	-0.358161	0.751461
8.350000	-0.017096	0.516118	0.533214	-0.288110	-0.317721	0.605832
8.355000	-0.032355	0.359180	0.391534	-0.188693	-0.244732	0.433425
8.360000	-0.035333	0.211888	0.247221	-0.101934	-0.163133	0.265067
8.365000	-0.033256	0.090463	0.123719	-0.033029	-0.090629	0.123658
8.370000	-0.030250	0.002421	0.032671	0.016067	-0.036327	0.020260
8.375000	-0.027958	-0.053054	-0.025096	0.046772	-0.001652	-0.045120
8.380000	-0.026093	-0.081818	-0.055725	0.062302	0.017108	-0.079410
8.385000	-0.023740	-0.091430	-0.067689	0.066493	0.025374	-0.091867
8.390000	-0.021281	-0.088724	-0.067443	0.063511	0.026651	-0.090163
8.395000	-0.019829	-0.079376	-0.059547	0.057276	0.022931	-0.080208
8.400000	-0.019180	-0.067832	-0.048652	0.050237	0.017016	-0.067252
8.405000	-0.018270	-0.056179	-0.037909	0.042983	0.011339	-0.054321
8.410000	-0.016605	-0.044763	-0.028159	0.035431	0.006671	-0.042102
8.415000	-0.014271	-0.033549	-0.019278	0.027609	0.002891	-0.030500
8.420000	-0.011124	-0.022472	-0.011349	0.019397	0.000130	-0.019526
8.425000	-0.006489	-0.011619	-0.005130	0.010455	-0.000785	-0.009670
8.430000	0.000307	-0.002002	-0.002309	0.000979	0.001511	-0.002489
8.435000	0.009810	0.004955	-0.004856	-0.008525	0.008468	0.000057
8.440000	0.022102	0.008840	-0.013262	-0.017864	0.020417	-0.002553
8.445000	0.036967	0.010122	-0.026845	-0.027186	0.036842	-0.009655
8.450000	0.054011	0.009089	-0.044922	-0.036430	0.057119	-0.020688
8.455000	0.071867	0.006199	-0.065667	-0.045071	0.079405	-0.034334
8.460000	0.089080	0.003087	-0.085992	-0.053213	0.101078	-0.047865
8.465000	0.104974	0.001351	-0.103623	-0.061387	0.120434	-0.059047
8.470000	0.119187	0.000851	-0.118336	-0.069304	0.137134	-0.067830
8.475000	0.131058	0.000379	-0.130679	-0.075885	0.151114	-0.075229
8.480000	0.139901	-0.000713	-0.140614	-0.080360	0.161955	-0.081595
8.485000	0.144946	-0.002466	-0.147413	-0.082261	0.168793	-0.086533
8.490000	0.145873	-0.004405	-0.150277	-0.081677	0.170982	-0.089306
8.495000	0.143001	-0.005921	-0.148923	-0.079143	0.168542	-0.089399
8.500000	0.136776	-0.006486	-0.143263	-0.075223	0.161681	-0.086458
8.505000	0.127656	-0.006118	-0.133774	-0.070170	0.150937	-0.080767
8.510000	0.116302	-0.006088	-0.122390	-0.063632	0.137809	-0.074177
8.515000	0.103181	-0.007892	-0.111073	-0.055015	0.123699	-0.068684
8.520000	0.087993	-0.012570	-0.100564	-0.043546	0.108863	-0.065318
8.525000	0.070077	-0.020644	-0.090721	-0.028540	0.092836	-0.064297
8.530000	0.049173	-0.031112	-0.080285	-0.010428	0.074743	-0.064315
8.535000	0.027593	-0.042577	-0.070170	0.008651	0.056444	-0.065095
8.540000	0.010421	-0.053799	-0.064220	0.025044	0.043094	-0.068138
8.545000	0.002188	-0.063861	-0.066049	0.035607	0.039396	-0.075004
8.550000	0.004189	-0.072709	-0.076898	0.039560	0.046816	-0.086376
8.555000	0.015183	-0.080621	-0.095803	0.037781	0.064078	-0.101858
8.560000	0.032310	-0.088138	-0.120448	0.032232	0.088194	-0.120427
8.565000	0.052150	-0.095283	-0.147433	0.024903	0.115230	-0.140133
8.570000	0.071414	-0.101275	-0.172689	0.017241	0.140932	-0.158173
8.575000	0.087450	-0.104664	-0.192115	0.009939	0.161407	-0.171345
8.580000	0.098962	-0.104917	-0.203879	0.003439	0.174845	-0.178284
8.585000	0.106407	-0.102471	-0.208877	-0.002272	0.182029	-0.179757
8.590000	0.111508	-0.097901	-0.209408	-0.007856	0.185281	-0.177425
8.595000	0.115605	-0.092230	-0.207834	-0.013496	0.186738	-0.173242
8.600000	0.118601	-0.086949	-0.205550	-0.018275	0.187149	-0.168874
8.605000	0.118703	-0.083755	-0.202458	-0.020177	0.185422	-0.165245
8.610000	0.115075	-0.083388	-0.198463	-0.018294	0.181021	-0.162727
8.615000	0.108693	-0.085372	-0.194065	-0.013465	0.174798	-0.161333
8.620000	0.100500	-0.089168	-0.189668	-0.006543	0.167529	-0.160986
8.625000	0.090595	-0.094197	-0.184792	0.002080	0.158994	-0.161074
8.630000	0.078620	-0.099555	-0.178175	0.012087	0.148261	-0.160347
8.635000	0.064074	-0.104433	-0.168507	0.023301	0.134281	-0.157582
8.640000	0.047355	-0.107357	-0.154712	0.034642	0.116663	-0.151305
8.645000	0.029342	-0.106940	-0.136282	0.044802	0.095623	-0.140425
8.650000	0.010465	-0.102418	-0.112883	0.053089	0.071215	-0.124304
8.655000	-0.008492	-0.093890	-0.085398	0.059110	0.044401	-0.103512
8.660000	-0.025817	-0.087237	-0.061420	0.065272	0.020555	-0.085827
8.665000	-0.032946	-0.101484	-0.068538	0.077613	0.020549	-0.098162
8.670000	-0.010768	-0.147377	-0.136609	0.091304	0.072655	-0.163959
8.675000	0.056969	-0.210917	-0.267886	0.088882	0.187555	-0.276437
8.680000	0.171819	-0.259460	-0.431279	0.050599	0.348199	-0.398798
8.685000	0.317156	-0.255579	-0.572735	-0.035551	0.513778	-0.478227
8.690000	0.457326	-0.175711	-0.633037	-0.162591	0.629521	-0.466931
8.695000	0.550008	-0.019886	-0.569893	-0.306066	0.646575	-0.340509
8.700000	0.567023	0.191702	-0.375320	-0.438050	0.544062	-0.106012
8.705000	0.505347	0.418191	-0.087156	-0.533204	0.342081	0.191123
8.710000	0.384702	0.605565	0.220863	-0.571731	0.094593	0.477138
8.715000	0.237050	0.711743	0.474693	-0.547786	-0.137203	0.684989
8.720000	0.093268	0.722523	0.629256	-0.470997	-0.309453	0.780449
8.725000	-0.024607	0.649596	0.674203	-0.360837	-0.403458	0.764295
8.730000	-0.106382	0.518590	0.624972	-0.237988	-0.422247	0.660235
8.735000	-0.153728	0.357739	0.511467	-0.117786	-0.384050	0.501836
8.740000	-0.175337	0.192333	0.367671	-0.009813	-0.313506	0.323318
8.745000	-0.181396	0.042387	0.223784	0.080257	-0.233931	0.153674
8.750000	-0.180211	-0.077910	0.102301	0.149026	-0.163108	0.014082
8.755000	-0.176974	-0.161968	0.015006	0.195688	-0.110839	-0.084849
8.760000	-0.174009	-0.211094	-0.037085	0.222339	-0.079053	-0.143286
8.765000	-0.171605	-0.232139	-0.060534	0.233101	-0.064127	-0.168975
8.770000	-0.168851	-0.234227	-0.065376	0.232717	-0.059742	-0.172976
8.775000	-0.165617	-0.225909	-0.060292	0.226047	-0.060809	-0.165238
8.780000	-0.162999	-0.213938	-0.050938	0.217625	-0.064699	-0.152926
8.785000	-0.161435	-0.202542	-0.041107	0.210142	-0.069471	-0.140671
8.790000	-0.160063	-0.192825	-0.032761	0.203740	-0.073498	-0.130242
8.795000	-0.158125	-0.184300	-0.026174	0.197699	-0.076182	-0.121517
8.800000	-0.155616	-0.177175	-0.021558	0.192137	-0.077398	-0.114738
8.805000	-0.152583	-0.172360	-0.019777	0.187606	-0.076676	-0.110930
8.810000	-0.148309	-0.170117	-0.021808	0.183843	-0.073035	-0.110808
8.815000	-0.141970	-0.169251	-0.027282	0.179683	-0.066215	-0.113468
8.820000	-0.133058	-0.168668	-0.035609	0.174201	-0.056262	-0.117939
8.825000	-0.121282	-0.167750	-0.046469	0.166873	-0.043194	-0.123679
8.830000	-0.106815	-0.165766	-0.058951	0.157375	-0.027634	-0.129741
8.835000	-0.089837	-0.162232	-0.072395	0.145532	-0.010070	-0.135462
8.840000	-0.071322	-0.157634	-0.086312	0.132188	0.008654	-0.140842
8.845000	-0.052888	-0.152316	-0.099428	0.118474	0.026870	-0.145344
8.850000	-0.035704	-0.145576	-0.109872	0.104662	0.042820	-0.147483
8.855000	-0.020322	-0.137584	-0.117262	0.091167	0.055969	-0.147135
8.860000	-0.007407	-0.129763	-0.122356	0.079195	0.066366	-0.145561
8.865000	0.002553	-0.123357	-0.125910	0.069746	0.074168	-0.143915
8.870000	0.009187	-0.119211	-0.128398	0.063523	0.079434	-0.142957
8.875000	0.012006	-0.117387	-0.129394	0.060842	0.081637	-0.142479
8.880000	0.011048	-0.117664	-0.128712	0.061555	0.080691	-0.142245
8.885000	0.006604	-0.120104	-0.126708	0.065530	0.076968	-0.142497
8.890000	-0.000902	-0.125041	-0.124139	0.072713	0.071151	-0.143865
8.895000	-0.010830	-0.133172	-0.122341	0.083139	0.064381	-0.147520
8.900000	-0.022569	-0.144432	-0.121863	0.096418	0.057327	-0.153745
8.905000	-0.036248	-0.157702	-0.121454	0.111977	0.049194	-0.161171
8.910000	-0.052494	-0.172209	-0.119715	0.129732	0.038810	-0.168542
8.915000	-0.071771	-0.186895	-0.115124	0.149341	0.025030	-0.174371
