Time	Lead I	Lead II	Lead III	aVR	aVL	aVF
0.000000	-0.000330	-0.001269	-0.000939	0.000923	0.000352	-0.001275
0.005000	-0.014399	-0.013712	0.000687	0.016230	-0.008710	-0.007520
0.010000	-0.074623	-0.039867	0.034756	0.066101	-0.063150	-0.002951
0.015000	-0.182234	-0.068134	0.114100	0.144550	-0.171089	0.026538
0.020000	-0.303357	-0.083451	0.219906	0.223324	-0.302106	0.078782
0.025000	-0.409027	-0.067278	0.341750	0.274995	-0.433461	0.158466
0.030000	-0.494566	0.005691	0.500257	0.282252	-0.574361	0.292110
0.035000	-0.572869	0.155480	0.728349	0.240979	-0.751258	0.510279
0.040000	-0.663757	0.381903	1.045660	0.162728	-0.986932	0.824204
0.045000	-0.777519	0.651733	1.429252	0.072623	-1.274080	1.201457
0.050000	-0.902479	0.900422	1.802901	0.001188	-1.561951	1.560763
0.055000	-1.013240	1.064407	2.077647	-0.029541	-1.784524	1.814065
0.060000	-1.087472	1.109118	2.196590	-0.012497	-1.896053	1.908551
0.065000	-1.115104	1.033114	2.148218	0.047337	-1.884079	1.836742
0.070000	-1.093929	0.857092	1.951020	0.136738	-1.758001	1.621264
0.075000	-1.028458	0.620409	1.648868	0.235587	-1.545754	1.310167
0.080000	-0.935763	0.375270	1.311033	0.323600	-1.297187	0.973587
0.085000	-0.839160	0.165319	1.004479	0.389042	-1.064425	0.675383
0.090000	-0.757190	0.012186	0.769376	0.430128	-0.881363	0.451235
0.095000	-0.698623	-0.083116	0.615507	0.451337	-0.758713	0.307376
0.100000	-0.663764	-0.132752	0.531012	0.459869	-0.689804	0.229935
0.105000	-0.647586	-0.153183	0.494403	0.462324	-0.659327	0.197003
0.110000	-0.643393	-0.158418	0.484975	0.462925	-0.651463	0.188538
0.115000	-0.645677	-0.158370	0.487306	0.464217	-0.654128	0.189911
0.120000	-0.650305	-0.158431	0.491874	0.466924	-0.659437	0.192513
0.125000	-0.654577	-0.159109	0.495468	0.469781	-0.663979	0.194197
0.130000	-0.656713	-0.159347	0.497366	0.471152	-0.666307	0.195155
0.135000	-0.655257	-0.159062	0.496195	0.470147	-0.664791	0.194644
0.140000	-0.649389	-0.158108	0.491281	0.466208	-0.658566	0.192358
0.145000	-0.638816	-0.156219	0.482597	0.459014	-0.647448	0.188434
0.150000	-0.624328	-0.153725	0.470603	0.449209	-0.632158	0.182949
0.155000	-0.607559	-0.151037	0.456523	0.437976	-0.614348	0.176372
0.160000	-0.590011	-0.147606	0.442406	0.425863	-0.596066	0.170203
0.165000	-0.572910	-0.143326	0.429585	0.413519	-0.578790	0.165271
0.170000	-0.557650	-0.139209	0.418441	0.402332	-0.563546	0.161214
0.175000	-0.545352	-0.135680	0.409671	0.393194	-0.551383	0.158189
0.180000	-0.536384	-0.132602	0.403782	0.386239	-0.542805	0.156566
0.185000	-0.530636	-0.130419	0.400218	0.381660	-0.537428	0.155769
0.190000	-0.528048	-0.129833	0.398215	0.379827	-0.534778	0.154950
0.195000	-0.528527	-0.130819	0.397709	0.380673	-0.534762	0.154089
0.200000	-0.531689	-0.132781	0.398908	0.383632	-0.537280	0.153648
0.205000	-0.536283	-0.134951	0.401331	0.387537	-0.541331	0.153794
0.210000	-0.540780	-0.136508	0.404272	0.391032	-0.545626	0.154594
0.215000	-0.544127	-0.137175	0.406952	0.393350	-0.549106	0.155756
0.220000	-0.546531	-0.137231	0.409300	0.394770	-0.551849	0.157079
0.225000	-0.548758	-0.136855	0.411903	0.395839	-0.554638	0.158799
0.230000	-0.550953	-0.136184	0.414770	0.396719	-0.557560	0.160842
0.235000	-0.552657	-0.135575	0.417083	0.397351	-0.559879	0.162529
0.240000	-0.553470	-0.135267	0.418203	0.397642	-0.560996	0.163354
0.245000	-0.553376	-0.135048	0.418328	0.397462	-0.561013	0.163551
0.250000	-0.552430	-0.134696	0.417734	0.396712	-0.560124	0.163412
0.255000	-0.550795	-0.134229	0.416566	0.395499	-0.558505	0.163007
0.260000	-0.548744	-0.133687	0.415057	0.394001	-0.556451	0.162449
0.265000	-0.546631	-0.133152	0.413479	0.392473	-0.554320	0.161847
0.270000	-0.545240	-0.132656	0.412584	0.391383	-0.552999	0.161616
0.275000	-0.545188	-0.131800	0.413388	0.390859	-0.553434	0.162575
0.280000	-0.546158	-0.130507	0.415651	0.390673	-0.555301	0.164628
0.285000	-0.547325	-0.129351	0.417974	0.390679	-0.557315	0.166636
0.290000	-0.548071	-0.128640	0.419431	0.390699	-0.558588	0.167889
0.295000	-0.548705	-0.128446	0.420258	0.390953	-0.559431	0.168478
0.300000	-0.549861	-0.128675	0.421186	0.391753	-0.560634	0.168881
0.305000	-0.551645	-0.129250	0.422395	0.393115	-0.562362	0.169247
0.310000	-0.554324	-0.130702	0.423622	0.395500	-0.564617	0.169117
0.315000	-0.557794	-0.133355	0.424439	0.399035	-0.567092	0.168057
0.320000	-0.561238	-0.136370	0.424868	0.402764	-0.569328	0.166564
0.325000	-0.563630	-0.138328	0.425303	0.405275	-0.570961	0.165685
0.330000	-0.563544	-0.138847	0.424697	0.405526	-0.570561	0.165036
0.335000	-0.559719	-0.137887	0.421832	0.402763	-0.566699	0.163936
0.340000	-0.551444	-0.135700	0.415744	0.396722	-0.558406	0.161683
0.345000	-0.538786	-0.133011	0.405775	0.387862	-0.545343	0.157481
0.350000	-0.523062	-0.130356	0.392706	0.377251	-0.528718	0.151468
0.355000	-0.505871	-0.127266	0.378605	0.365541	-0.510652	0.145110
0.360000	-0.488645	-0.123161	0.365485	0.353226	-0.493132	0.139906
0.365000	-0.472828	-0.118890	0.353938	0.341628	-0.477333	0.135705
0.370000	-0.459618	-0.115652	0.343966	0.332132	-0.463949	0.131817
0.375000	-0.449644	-0.113264	0.336380	0.324995	-0.453811	0.128816
0.380000	-0.442918	-0.111271	0.331647	0.319961	-0.447195	0.127234
0.385000	-0.439428	-0.110276	0.329152	0.317371	-0.443739	0.126368
0.390000	-0.439019	-0.110875	0.328143	0.317481	-0.442921	0.125440
0.395000	-0.441407	-0.112634	0.328772	0.319876	-0.444663	0.124787
0.400000	-0.445719	-0.114743	0.330976	0.323583	-0.448425	0.124842
0.405000	-0.450447	-0.116468	0.333979	0.327308	-0.452888	0.125580
0.410000	-0.452029	-0.115929	0.336099	0.327911	-0.455026	0.127115
0.415000	-0.442673	-0.107969	0.334704	0.317913	-0.448818	0.130905
0.420000	-0.422697	-0.081380	0.341317	0.291029	-0.441103	0.150074
0.425000	-0.406615	-0.013272	0.393343	0.242422	-0.461856	0.219434
0.430000	-0.413673	0.121641	0.535314	0.168604	-0.547898	0.379293
0.435000	-0.460292	0.332086	0.792378	0.074020	-0.723229	0.649209
0.440000	-0.551712	0.595519	1.147231	-0.025292	-0.980885	1.006177
0.445000	-0.671905	0.853969	1.525874	-0.105115	-1.268887	1.374002
0.450000	-0.790034	1.041487	1.831521	-0.145176	-1.513555	1.658731
0.455000	-0.877306	1.115259	1.992565	-0.137382	-1.656920	1.794302
0.460000	-0.918664	1.066344	1.985008	-0.085263	-1.676435	1.761698
0.465000	-0.910315	0.910939	1.821254	-0.000361	-1.577071	1.577432
0.470000	-0.854649	0.683746	1.538394	0.098671	-1.381623	1.282952
0.475000	-0.766222	0.435377	1.201599	0.191013	-1.136122	0.945108
0.480000	-0.668479	0.213728	0.882206	0.262551	-0.895288	0.632737
0.485000	-0.582043	0.046146	0.628189	0.309400	-0.698727	0.389328
0.490000	-0.518026	-0.062270	0.455756	0.335034	-0.562213	0.227180
0.495000	-0.478442	-0.121269	0.357173	0.346243	-0.482442	0.136199
0.500000	-0.459031	-0.146773	0.312258	0.349761	-0.445303	0.095542
0.505000	-0.452936	-0.154105	0.298831	0.350475	-0.434032	0.083557
0.510000	-0.454339	-0.154513	0.299826	0.351520	-0.435417	0.083896
0.515000	-0.459010	-0.154269	0.304741	0.354077	-0.440952	0.086875
0.520000	-0.464021	-0.155078	0.308943	0.357437	-0.446270	0.088834
0.525000	-0.467404	-0.156004	0.311400	0.359925	-0.449643	0.089718
0.530000	-0.467519	-0.156450	0.311069	0.360248	-0.449518	0.089270
0.535000	-0.463353	-0.156100	0.307253	0.357641	-0.444910	0.087268
0.540000	-0.454363	-0.154894	0.299469	0.351754	-0.435224	0.083470
0.545000	-0.440956	-0.152935	0.288022	0.342883	-0.420876	0.077993
0.550000	-0.424798	-0.150457	0.274341	0.332123	-0.403648	0.071525
0.555000	-0.407592	-0.147308	0.260284	0.320371	-0.385598	0.065227
0.560000	-0.390685	-0.143086	0.247599	0.308173	-0.368513	0.060341
0.565000	-0.375371	-0.138605	0.236766	0.296744	-0.353417	0.056673
0.570000	-0.362702	-0.135081	0.227621	0.287395	-0.340823	0.053428
0.575000	-0.353195	-0.132274	0.220921	0.280286	-0.331466	0.051180
0.580000	-0.346915	-0.130002	0.216914	0.275348	-0.325527	0.050179
0.585000	-0.343970	-0.129319	0.214651	0.273253	-0.322519	0.049266
0.590000	-0.344251	-0.130573	0.213678	0.274139	-0.322120	0.047981
0.595000	-0.347439	-0.132757	0.214682	0.277241	-0.324540	0.047299
0.600000	-0.352452	-0.134948	0.217504	0.281400	-0.329064	0.047664
0.605000	-0.357594	-0.136801	0.220792	0.285439	-0.333931	0.048492
0.610000	-0.361575	-0.137875	0.223700	0.288357	-0.337908	0.049551
0.615000	-0.364455	-0.138042	0.226413	0.290117	-0.341138	0.051021
0.620000	-0.367033	-0.137797	0.229236	0.291463	-0.344256	0.052792
0.625000	-0.369576	-0.137285	0.232290	0.292636	-0.347487	0.054851
0.630000	-0.371722	-0.136603	0.235120	0.293481	-0.350360	0.056879
0.635000	-0.373070	-0.136120	0.236950	0.293981	-0.352195	0.058214
0.640000	-0.373432	-0.135664	0.237768	0.293927	-0.352876	0.058950
0.645000	-0.372766	-0.134813	0.237953	0.293051	-0.352599	0.059548
0.650000	-0.371323	-0.133789	0.237535	0.291626	-0.351524	0.059898
0.655000	-0.369436	-0.132910	0.236526	0.290029	-0.349852	0.059823
0.660000	-0.367527	-0.132158	0.235369	0.288493	-0.348082	0.059589
0.665000	-0.366312	-0.131504	0.234808	0.287414	-0.347056	0.059642
0.670000	-0.366485	-0.130824	0.235660	0.287121	-0.347649	0.060527
0.675000	-0.367930	-0.129563	0.238368	0.287228	-0.350046	0.062819
0.680000	-0.369915	-0.128066	0.241849	0.287509	-0.353202	0.065692
0.685000	-0.371534	-0.127259	0.244274	0.287978	-0.355537	0.067559
0.690000	-0.372693	-0.127226	0.245467	0.288628	-0.356895	0.068266
0.695000	-0.374177	-0.127548	0.246629	0.289671	-0.358422	0.068751
0.700000	-0.376349	-0.128323	0.248026	0.291372	-0.360483	0.069110
0.705000	-0.379355	-0.129962	0.249393	0.294054	-0.363007	0.068953
0.710000	-0.383206	-0.132478	0.250727	0.297730	-0.366001	0.068271
0.715000	-0.387260	-0.135369	0.251891	0.301740	-0.369014	0.067274
0.720000	-0.390477	-0.137548	0.252929	0.304855	-0.371470	0.066615
0.725000	-0.391516	-0.138318	0.253199	0.305900	-0.372226	0.066327
0.730000	-0.389199	-0.137416	0.251782	0.304041	-0.370070	0.066029
0.735000	-0.382680	-0.135258	0.247421	0.299031	-0.363789	0.064757
0.740000	-0.371541	-0.132592	0.238949	0.291061	-0.352466	0.061406
0.745000	-0.356813	-0.129799	0.227014	0.280945	-0.337072	0.056127
0.750000	-0.340212	-0.126988	0.213224	0.269738	-0.319526	0.049788
0.755000	-0.323339	-0.123605	0.199734	0.258043	-0.301996	0.043953
0.760000	-0.307631	-0.119312	0.188319	0.246496	-0.286336	0.039841
0.765000	-0.294190	-0.115175	0.179016	0.236347	-0.273205	0.036859
0.770000	-0.283617	-0.111975	0.171641	0.228395	-0.262843	0.034448
0.775000	-0.276058	-0.109266	0.166791	0.222467	-0.255679	0.033212
0.780000	-0.271810	-0.107123	0.164686	0.218777	-0.252011	0.033234
0.785000	-0.270993	-0.106738	0.164255	0.218083	-0.251290	0.033207
0.790000	-0.273267	-0.108450	0.164817	0.220384	-0.252928	0.032544
0.795000	-0.277726	-0.110961	0.166765	0.224409	-0.256627	0.032218
0.800000	-0.282815	-0.113184	0.169631	0.228630	-0.261220	0.032590
0.805000	-0.285855	-0.113944	0.171911	0.230824	-0.264291	0.033467
0.810000	-0.279655	-0.108558	0.171097	0.224135	-0.260242	0.036107
0.815000	-0.261626	-0.087567	0.174060	0.201607	-0.251543	0.049937
0.820000	-0.243431	-0.031227	0.212204	0.158574	-0.263061	0.104487
0.825000	-0.243997	0.086735	0.330732	0.090796	-0.331820	0.241024
0.830000	-0.280765	0.280445	0.561210	0.000185	-0.486114	0.485930
0.835000	-0.362774	0.535744	0.898518	-0.099864	-0.728207	0.828071
0.840000	-0.479169	0.801340	1.280509	-0.186005	-1.015950	1.201955
0.845000	-0.601242	1.010214	1.611456	-0.236120	-1.277501	1.513621
0.850000	-0.698324	1.112347	1.810671	-0.239036	-1.448568	1.687604
0.855000	-0.751665	1.091016	1.842681	-0.195924	-1.497846	1.693770
0.860000	-0.755523	0.958201	1.713724	-0.117017	-1.425619	1.542636
0.865000	-0.710618	0.744317	1.454935	-0.019456	-1.250282	1.269738
0.870000	-0.628373	0.496540	1.124913	0.076114	-1.012260	0.936146
0.875000	-0.531041	0.265418	0.796459	0.153358	-0.766432	0.613075
0.880000	-0.440834	0.084229	0.525063	0.205886	-0.557661	0.351775
0.885000	-0.371311	-0.037389	0.333922	0.235963	-0.407166	0.171203
0.890000	-0.326340	-0.106864	0.219476	0.250111	-0.315127	0.065016
0.895000	-0.302942	-0.138962	0.163980	0.255133	-0.269577	0.014444
0.900000	-0.294650	-0.149374	0.145276	0.256357	-0.253991	-0.002366
0.905000	-0.295274	-0.150854	0.144420	0.257572	-0.253857	-0.003715
0.910000	-0.300159	-0.150660	0.149498	0.260280	-0.259609	-0.000671
0.915000	-0.305887	-0.151138	0.154749	0.263863	-0.265948	0.002085
0.920000	-0.310127	-0.152068	0.158059	0.266848	-0.270307	0.003459
0.925000	-0.311243	-0.152664	0.158579	0.267837	-0.271252	0.003415
0.930000	-0.308325	-0.152109	0.156216	0.265832	-0.268203	0.002371
0.935000	-0.300882	-0.150583	0.150299	0.260653	-0.260489	-0.000164
0.940000	-0.288907	-0.148515	0.140392	0.252546	-0.247856	-0.004690
0.945000	-0.273792	-0.145872	0.127920	0.242293	-0.231928	-0.010365
0.950000	-0.257273	-0.142490	0.114782	0.230803	-0.214806	-0.015997
0.955000	-0.240652	-0.138353	0.102299	0.218819	-0.198003	-0.020816
0.960000	-0.225274	-0.133764	0.091510	0.207291	-0.182895	-0.024396
0.965000	-0.212372	-0.129623	0.082749	0.197451	-0.170388	-0.027063
0.970000	-0.202529	-0.126502	0.076027	0.189966	-0.160824	-0.029142
0.975000	-0.195841	-0.124272	0.071568	0.184817	-0.154389	-0.030429
0.980000	-0.192509	-0.123264	0.069246	0.182312	-0.151124	-0.031187
0.985000	-0.192479	-0.124215	0.068265	0.182843	-0.150540	-0.032303
0.990000	-0.195384	-0.126555	0.068830	0.185871	-0.152544	-0.033327
0.995000	-0.200327	-0.128896	0.071431	0.190077	-0.156900	-0.033178
1.000000	-0.205796	-0.130617	0.075179	0.194228	-0.162221	-0.032008
1.005000	-0.210414	-0.131789	0.078626	0.197571	-0.166877	-0.030694
1.010000	-0.213877	-0.132256	0.081622	0.199840	-0.170607	-0.029233
1.015000	-0.216925	-0.131969	0.084955	0.201434	-0.174291	-0.027143
1.020000	-0.219930	-0.131398	0.088532	0.202840	-0.178091	-0.024749
1.025000	-0.222587	-0.130792	0.091795	0.204024	-0.181508	-0.022515
1.030000	-0.224497	-0.130113	0.094384	0.204734	-0.184106	-0.020628
1.035000	-0.225432	-0.129551	0.095881	0.204949	-0.185510	-0.019439
1.040000	-0.225160	-0.128747	0.096413	0.204328	-0.185660	-0.018668
1.045000	-0.223923	-0.127515	0.096408	0.202903	-0.184943	-0.017959
1.050000	-0.222278	-0.126401	0.095877	0.201310	-0.183687	-0.017623
1.055000	-0.220640	-0.125720	0.094920	0.199971	-0.182189	-0.017782
1.060000	-0.219629	-0.125096	0.094533	0.199027	-0.181381	-0.017646
1.065000	-0.220043	-0.124255	0.095788	0.198780	-0.182345	-0.016435
1.070000	-0.221828	-0.123088	0.098739	0.199137	-0.185079	-0.014058
1.075000	-0.224189	-0.121894	0.102295	0.199811	-0.188495	-0.011316
1.080000	-0.226293	-0.121063	0.105230	0.200546	-0.191405	-0.009141
1.085000	-0.227858	-0.120924	0.106934	0.201370	-0.193293	-0.008077
1.090000	-0.229510	-0.121229	0.108280	0.202499	-0.195023	-0.007476
1.095000	-0.231723	-0.121504	0.110219	0.203936	-0.197420	-0.006516
1.100000	-0.234660	-0.122328	0.112331	0.206107	-0.200335	-0.005772
1.105000	-0.238513	-0.124520	0.113994	0.209597	-0.203520	-0.006077
1.110000	-0.242870	-0.127574	0.115296	0.213876	-0.206787	-0.007089
1.115000	-0.246776	-0.130197	0.116579	0.217646	-0.209783	-0.007863
1.120000	-0.248808	-0.131806	0.117001	0.219747	-0.211200	-0.008548
1.125000	-0.247621	-0.132197	0.115425	0.219288	-0.209605	-0.009683
1.130000	-0.242394	-0.130974	0.111420	0.215564	-0.204275	-0.011289
1.135000	-0.232580	-0.128765	0.103815	0.208623	-0.194218	-0.014405
1.140000	-0.218893	-0.126391	0.092502	0.199350	-0.179783	-0.019566
1.145000	-0.203019	-0.123599	0.079420	0.188573	-0.163066	-0.025506
1.150000	-0.186447	-0.119894	0.066553	0.176866	-0.146069	-0.030796
1.155000	-0.170370	-0.115644	0.054726	0.165131	-0.129959	-0.035172
1.160000	-0.156133	-0.111808	0.044325	0.154696	-0.115734	-0.038961
1.165000	-0.144925	-0.108650	0.036275	0.146402	-0.104616	-0.041786
1.170000	-0.137063	-0.106166	0.030897	0.140428	-0.096972	-0.043457
1.175000	-0.132548	-0.104662	0.027886	0.136953	-0.092627	-0.044327
1.180000	-0.131480	-0.104601	0.026878	0.136301	-0.091428	-0.044873
1.185000	-0.133566	-0.106125	0.027441	0.138386	-0.092957	-0.045429
1.190000	-0.138141	-0.108691	0.029450	0.142508	-0.096759	-0.045750
1.195000	-0.143879	-0.111160	0.032719	0.147247	-0.101959	-0.045288
1.200000	-0.148668	-0.112400	0.036268	0.150728	-0.106772	-0.043955
1.205000	-0.146072	-0.109113	0.036959	0.147331	-0.105673	-0.041658
1.210000	-0.130814	-0.093394	0.037421	0.129446	-0.097130	-0.032316
1.215000	-0.111425	-0.047803	0.063623	0.091930	-0.101064	0.009134
1.220000	-0.106304	0.053715	0.160018	0.030362	-0.153761	0.123399
1.225000	-0.133730	0.229421	0.363151	-0.055247	-0.286874	0.342121
1.230000	-0.205815	0.473317	0.679132	-0.154442	-0.510924	0.665367
1.235000	-0.316834	0.742606	1.059440	-0.245819	-0.794592	1.040411
1.240000	-0.440992	0.970667	1.411659	-0.305808	-1.069628	1.375436
1.245000	-0.546611	1.101280	1.647892	-0.320238	-1.266996	1.587234
1.250000	-0.611534	1.109463	1.720997	-0.287479	-1.346687	1.634166
1.255000	-0.627623	1.001000	1.628623	-0.215569	-1.302644	1.518213
1.260000	-0.594075	0.802147	1.396222	-0.120131	-1.149098	1.269228
1.265000	-0.519154	0.557131	1.076285	-0.021926	-0.921126	0.943053
1.270000	-0.423343	0.317826	0.741169	0.060920	-0.672331	0.611411
1.275000	-0.329998	0.122765	0.452763	0.119646	-0.451927	0.332281
1.280000	-0.255155	-0.012756	0.242399	0.154678	-0.287262	0.132584
1.285000	-0.204720	-0.093072	0.111648	0.171930	-0.182655	0.010724
1.290000	-0.177040	-0.132214	0.044825	0.178548	-0.128094	-0.050454
1.295000	-0.166090	-0.146113	0.019977	0.180251	-0.107426	-0.072825
1.300000	-0.165333	-0.148418	0.016916	0.181144	-0.105222	-0.075923
1.305000	-0.169697	-0.148124	0.021573	0.183494	-0.110430	-0.073064
1.310000	-0.175460	-0.148647	0.026813	0.187123	-0.116783	-0.070341
1.315000	-0.180252	-0.149600	0.030651	0.190440	-0.121765	-0.068675
1.320000	-0.182412	-0.150301	0.032111	0.192092	-0.123855	-0.068237
1.325000	-0.180804	-0.150076	0.030728	0.191033	-0.122128	-0.068905
1.330000	-0.174827	-0.148451	0.026376	0.186645	-0.116165	-0.070480
1.335000	-0.164210	-0.146170	0.018040	0.179198	-0.105222	-0.073976
1.340000	-0.150019	-0.143827	0.006192	0.169652	-0.090188	-0.079464
1.345000	-0.134008	-0.141076	-0.007068	0.158820	-0.073288	-0.085531
1.350000	-0.117578	-0.137341	-0.019764	0.147178	-0.056473	-0.090705
1.355000	-0.101964	-0.133001	-0.031037	0.135657	-0.040950	-0.094707
1.360000	-0.088554	-0.128992	-0.040438	0.125600	-0.027780	-0.097821
1.365000	-0.078284	-0.125564	-0.047280	0.117692	-0.017900	-0.099792
1.370000	-0.071315	-0.122837	-0.051522	0.112094	-0.011427	-0.100667
1.375000	-0.067691	-0.121314	-0.053623	0.109122	-0.008122	-0.101000
1.380000	-0.067336	-0.121390	-0.054054	0.108961	-0.007668	-0.101293
1.385000	-0.069907	-0.122951	-0.053044	0.111347	-0.009736	-0.101611
1.390000	-0.074743	-0.125197	-0.050454	0.115436	-0.014023	-0.101413
1.395000	-0.080491	-0.127241	-0.046750	0.119934	-0.019480	-0.100454
1.400000	-0.085656	-0.128748	-0.043092	0.123786	-0.024575	-0.099212
1.405000	-0.089635	-0.129648	-0.040013	0.126603	-0.028650	-0.097953
1.410000	-0.093102	-0.129878	-0.036776	0.128738	-0.032520	-0.096218
1.415000	-0.096612	-0.129572	-0.032960	0.130587	-0.036749	-0.093838
1.420000	-0.099938	-0.129226	-0.029289	0.132308	-0.040789	-0.091519
1.425000	-0.102547	-0.128979	-0.026432	0.133672	-0.043945	-0.089727
1.430000	-0.104100	-0.128601	-0.024501	0.134350	-0.045956	-0.088394
1.435000	-0.104570	-0.128181	-0.023611	0.134379	-0.046742	-0.087637
1.440000	-0.104094	-0.127767	-0.023673	0.133865	-0.046431	-0.087434
1.445000	-0.102987	-0.127167	-0.024179	0.132879	-0.045500	-0.087380
1.450000	-0.101571	-0.126471	-0.024900	0.131660	-0.044266	-0.087394
1.455000	-0.100370	-0.125951	-0.025581	0.130667	-0.043179	-0.087487
1.460000	-0.100364	-0.125308	-0.024944	0.130292	-0.043544	-0.086748
1.465000	-0.101934	-0.124036	-0.022102	0.130464	-0.046091	-0.084373
1.470000	-0.104473	-0.122462	-0.017990	0.131021	-0.049931	-0.081090
1.475000	-0.107026	-0.121226	-0.014199	0.131781	-0.053594	-0.078188
1.480000	-0.109014	-0.120434	-0.011420	0.132472	-0.056346	-0.076126
1.485000	-0.110813	-0.120315	-0.009503	0.133442	-0.058491	-0.074950
1.490000	-0.113109	-0.120835	-0.007726	0.135068	-0.060843	-0.074225
1.495000	-0.116143	-0.121688	-0.005545	0.137312	-0.063854	-0.073458
1.500000	-0.120112	-0.123414	-0.003303	0.140600	-0.067440	-0.073160
1.505000	-0.124742	-0.126309	-0.001568	0.144944	-0.071115	-0.073830
1.510000	-0.129249	-0.129113	0.000136	0.149166	-0.074700	-0.074465
1.515000	-0.132469	-0.130623	0.001845	0.151896	-0.077546	-0.074350
1.520000	-0.132869	-0.130994	0.001875	0.152341	-0.077795	-0.074547
1.525000	-0.129396	-0.129965	-0.000569	0.149742	-0.074378	-0.075364
1.530000	-0.121434	-0.127542	-0.006108	0.143746	-0.066584	-0.077162
1.535000	-0.109260	-0.124721	-0.015461	0.135089	-0.054155	-0.080934
1.540000	-0.094273	-0.122120	-0.027846	0.124935	-0.038352	-0.086583
1.545000	-0.078052	-0.118916	-0.040864	0.113719	-0.021470	-0.092249
1.550000	-0.061957	-0.114621	-0.052664	0.101947	-0.005365	-0.096582
1.555000	-0.047445	-0.110344	-0.062899	0.091099	0.008922	-0.100022
1.560000	-0.035747	-0.106935	-0.071187	0.082377	0.020461	-0.102839
1.565000	-0.027279	-0.104286	-0.077007	0.075959	0.028710	-0.104669
1.570000	-0.021930	-0.102437	-0.080506	0.071803	0.033819	-0.105622
1.575000	-0.019952	-0.101759	-0.081807	0.070270	0.035712	-0.105982
1.580000	-0.021306	-0.102462	-0.081156	0.071457	0.034555	-0.106012
1.585000	-0.025477	-0.104399	-0.078922	0.074984	0.030856	-0.105840
1.590000	-0.031192	-0.106868	-0.075675	0.079709	0.025682	-0.105391
1.595000	-0.036758	-0.108651	-0.071892	0.083952	0.020285	-0.104237
1.600000	-0.037490	-0.107191	-0.069701	0.083532	0.018597	-0.102129
1.605000	-0.026059	-0.096724	-0.070665	0.070889	0.025753	-0.096642
1.610000	-0.006282	-0.063569	-0.057287	0.040328	0.029448	-0.069776
1.615000	0.005297	0.017156	0.011860	-0.012963	-0.003789	0.016752
1.620000	-0.010180	0.168114	0.178294	-0.091183	-0.108816	0.199999
1.625000	-0.067773	0.392715	0.460489	-0.187605	-0.304992	0.492597
1.630000	-0.168683	0.660626	0.829309	-0.284024	-0.576190	0.860214
1.635000	-0.292449	0.909058	1.201508	-0.355999	-0.862536	1.218535
1.640000	-0.407239	1.075046	1.482285	-0.385558	-1.090916	1.476475
1.645000	-0.486714	1.122978	1.609692	-0.367347	-1.210360	1.577707
1.650000	-0.518815	1.049951	1.568767	-0.306651	-1.205266	1.511917
1.655000	-0.500924	0.876038	1.376962	-0.216572	-1.084197	1.300769
1.660000	-0.437619	0.640145	1.077764	-0.116928	-0.874906	0.991835
1.665000	-0.346220	0.394296	0.740515	-0.027756	-0.627427	0.655183
1.670000	-0.250431	0.182612	0.433044	0.039155	-0.394604	0.355449
1.675000	-0.169131	0.027731	0.196862	0.081638	-0.211306	0.129669
1.680000	-0.111191	-0.068920	0.042271	0.103987	-0.088602	-0.015386
1.685000	-0.077077	-0.119527	-0.042449	0.113509	-0.019992	-0.093517
1.690000	-0.061966	-0.140320	-0.078354	0.116790	0.009462	-0.126251
1.695000	-0.059160	-0.145549	-0.086388	0.118189	0.015720	-0.133909
1.700000	-0.062935	-0.145584	-0.082649	0.120389	0.011382	-0.131770
1.705000	-0.069020	-0.145774	-0.076754	0.124011	0.004466	-0.128477
1.710000	-0.074647	-0.146698	-0.072051	0.127794	-0.001499	-0.126295
1.715000	-0.078015	-0.147403	-0.069388	0.130145	-0.004980	-0.125165
1.720000	-0.077819	-0.147596	-0.069777	0.130143	-0.004643	-0.125501
1.725000	-0.073436	-0.146719	-0.073282	0.127107	-0.000089	-0.127018
1.730000	-0.064517	-0.144608	-0.080090	0.120738	0.008991	-0.129729
1.735000	-0.051629	-0.141955	-0.090326	0.111766	0.022342	-0.134107
1.740000	-0.036438	-0.139060	-0.102622	0.101324	0.038212	-0.139536
1.745000	-0.020527	-0.135435	-0.114908	0.090045	0.054491	-0.144535
1.750000	-0.005123	-0.131135	-0.126012	0.078668	0.069795	-0.148463
1.755000	0.008494	-0.127179	-0.135673	0.068523	0.083235	-0.151757
1.760000	0.019315	-0.124033	-0.143347	0.060459	0.093913	-0.154372
1.765000	0.026987	-0.121367	-0.148354	0.054490	0.101233	-0.155723
1.770000	0.031491	-0.119444	-0.150935	0.050780	0.105323	-0.156103
1.775000	0.032721	-0.118949	-0.151670	0.049783	0.106458	-0.156242
1.780000	0.030873	-0.119941	-0.150815	0.051423	0.104898	-0.156321
1.785000	0.026473	-0.121969	-0.148442	0.055134	0.100987	-0.156121
1.790000	0.020718	-0.124209	-0.144928	0.059750	0.095636	-0.155386
1.795000	0.015020	-0.125717	-0.140737	0.063911	0.089927	-0.153837
1.800000	0.010359	-0.126244	-0.136603	0.066906	0.084849	-0.151755
1.805000	0.006534	-0.126362	-0.132896	0.069182	0.080500	-0.149683
1.810000	0.002898	-0.126268	-0.129166	0.071228	0.076247	-0.147475
1.815000	-0.000587	-0.126000	-0.125413	0.073085	0.072068	-0.145153
1.820000	-0.003540	-0.125812	-0.122273	0.074681	0.068551	-0.143232
1.825000	-0.005666	-0.125511	-0.119845	0.075735	0.065921	-0.141657
1.830000	-0.006890	-0.124788	-0.117898	0.076025	0.064091	-0.140115
1.835000	-0.007201	-0.123875	-0.116674	0.075676	0.063204	-0.138881
1.840000	-0.006829	-0.123139	-0.116309	0.075037	0.063208	-0.138245
1.845000	-0.006127	-0.122454	-0.116328	0.074236	0.063625	-0.137861
1.850000	-0.005473	-0.121859	-0.116386	0.073515	0.064035	-0.137551
1.855000	-0.005585	-0.121397	-0.115812	0.073313	0.063640	-0.136953
1.860000	-0.006995	-0.120493	-0.113498	0.073605	0.061490	-0.135095
1.865000	-0.009412	-0.118915	-0.109503	0.074089	0.057788	-0.131877
1.870000	-0.012035	-0.117568	-0.105533	0.074826	0.053981	-0.128807
1.875000	-0.014233	-0.116974	-0.102740	0.075752	0.051100	-0.126852
1.880000	-0.016224	-0.116843	-0.100618	0.076826	0.048725	-0.125551
1.885000	-0.018719	-0.116972	-0.098253	0.078341	0.045919	-0.124260
1.890000	-0.021924	-0.117357	-0.095434	0.080414	0.042441	-0.122855
1.895000	-0.026009	-0.118440	-0.092431	0.083397	0.038349	-0.121746
1.900000	-0.030878	-0.121029	-0.090151	0.087703	0.034221	-0.121925
1.905000	-0.035823	-0.124617	-0.088794	0.092630	0.030583	-0.123213
1.910000	-0.039716	-0.127349	-0.087633	0.096455	0.027665	-0.124120
1.915000	-0.041064	-0.128339	-0.087275	0.097804	0.026680	-0.124485
1.920000	-0.038726	-0.127518	-0.088791	0.095981	0.028905	-0.124886
1.925000	-0.032036	-0.125143	-0.093107	0.090747	0.035259	-0.126006
1.930000	-0.020919	-0.122077	-0.101157	0.082559	0.046325	-0.128884
1.935000	-0.006570	-0.119214	-0.112644	0.072622	0.061242	-0.133864
1.940000	0.009363	-0.116288	-0.125651	0.061733	0.077950	-0.139683
1.945000	0.025471	-0.112438	-0.137908	0.050210	0.094327	-0.144537
1.950000	0.040326	-0.108120	-0.148446	0.039141	0.108988	-0.148129
1.955000	0.052631	-0.104586	-0.157218	0.029996	0.121156	-0.151153
1.960000	0.061669	-0.101789	-0.163457	0.023163	0.129976	-0.153140
1.965000	0.067440	-0.099486	-0.166927	0.018502	0.135312	-0.153814
1.970000	0.069920	-0.098512	-0.168432	0.016507	0.137613	-0.154120
1.975000	0.069067	-0.099252	-0.168318	0.017427	0.137054	-0.154482
1.980000	0.065219	-0.101208	-0.166427	0.020778	0.133741	-0.154519
1.985000	0.059539	-0.103794	-0.163334	0.025551	0.128676	-0.154226
1.990000	0.053644	-0.106137	-0.159780	0.030307	0.123220	-0.153527
1.995000	0.050863	-0.106085	-0.156948	0.031883	0.119980	-0.151862
2.000000	0.058840	-0.098632	-0.157473	0.022974	0.124888	-0.147862
2.005000	0.077441	-0.073011	-0.150452	-0.002557	0.131574	-0.129017
2.010000	0.092407	-0.006310	-0.098717	-0.049708	0.110346	-0.060637
2.015000	0.084678	0.127074	0.042396	-0.122255	0.024412	0.097843
2.020000	0.037794	0.336070	0.298276	-0.215850	-0.150389	0.366239
2.025000	-0.054015	0.598993	0.653007	-0.314643	-0.408199	0.722842
2.030000	-0.175274	0.858654	1.033929	-0.394549	-0.698133	1.092683
2.035000	-0.295320	1.048643	1.343963	-0.434931	-0.946440	1.381371
2.040000	-0.385180	1.125154	1.510334	-0.427224	-1.094375	1.521599
2.045000	-0.429450	1.078803	1.508253	-0.374904	-1.118733	1.493637
2.050000	-0.424078	0.925671	1.349749	-0.289594	-1.024119	1.313714
2.055000	-0.371249	0.699887	1.071136	-0.189739	-0.832761	1.022500
2.060000	-0.285030	0.451738	0.736768	-0.096249	-0.589935	0.686184
2.065000	-0.188654	0.229406	0.418059	-0.023528	-0.350286	0.373814
2.070000	-0.102917	0.060604	0.163521	0.024430	-0.153828	0.129398
2.075000	-0.039203	-0.049153	-0.009950	0.051012	-0.016889	-0.034123
2.080000	0.000304	-0.109371	-0.109675	0.062970	0.063497	-0.126466
2.085000	0.019503	-0.135999	-0.155502	0.067259	0.101039	-0.168298
2.090000	0.024939	-0.144068	-0.169008	0.068779	0.111975	-0.180755
2.095000	0.022466	-0.144683	-0.167149	0.070562	0.109474	-0.180036
2.100000	0.016548	-0.144423	-0.160970	0.073829	0.102490	-0.176319
2.105000	0.010332	-0.145117	-0.155449	0.077818	0.095714	-0.173532
2.110000	0.005818	-0.145788	-0.151606	0.080812	0.090888	-0.171700
2.115000	0.004530	-0.145753	-0.150283	0.081535	0.089382	-0.170916
2.120000	0.007433	-0.144741	-0.152173	0.079275	0.092149	-0.171424
2.125000	0.015012	-0.142759	-0.157772	0.073755	0.099757	-0.173511
2.130000	0.026920	-0.140210	-0.167130	0.065408	0.112034	-0.177442
2.135000	0.041648	-0.137665	-0.179313	0.055435	0.127572	-0.183008
2.140000	0.057546	-0.134794	-0.192340	0.044599	0.144272	-0.188871
2.145000	0.073250	-0.130963	-0.204213	0.033321	0.160193	-0.193514
2.150000	0.087395	-0.126849	-0.214243	0.022779	0.174150	-0.196929
2.155000	0.098802	-0.123378	-0.222181	0.014189	0.185319	-0.199509
2.160000	0.106906	-0.120258	-0.227164	0.007708	0.192876	-0.200584
2.165000	0.111713	-0.117720	-0.229433	0.003468	0.196960	-0.200429
2.170000	0.113253	-0.116868	-0.230120	0.002087	0.198246	-0.200333
2.175000	0.111725	-0.117809	-0.229534	0.003512	0.197026	-0.200538
2.180000	0.107514	-0.119738	-0.227252	0.007057	0.193277	-0.200334
2.185000	0.101734	-0.122042	-0.223776	0.011725	0.187933	-0.199658
2.190000	0.095833	-0.124127	-0.219959	0.016336	0.182322	-0.198658
2.195000	0.090889	-0.125207	-0.216096	0.019814	0.177238	-0.197051
2.200000	0.086901	-0.125398	-0.212300	0.022226	0.172744	-0.194970
2.205000	0.083141	-0.125262	-0.208403	0.024318	0.168323	-0.192642
2.210000	0.079312	-0.124828	-0.204141	0.026279	0.163652	-0.189930
2.215000	0.075774	-0.124248	-0.200022	0.027986	0.159231	-0.187217
2.220000	0.073028	-0.123927	-0.196956	0.029387	0.155875	-0.185262
2.225000	0.071278	-0.123552	-0.194830	0.030181	0.153637	-0.183818
2.230000	0.070628	-0.122676	-0.193304	0.030050	0.152381	-0.182431
2.235000	0.070795	-0.121679	-0.192474	0.029378	0.151998	-0.181376
2.240000	0.071371	-0.120975	-0.192346	0.028639	0.152257	-0.180895
2.245000	0.071965	-0.120434	-0.192399	0.027984	0.152631	-0.180614
2.250000	0.071867	-0.119946	-0.191814	0.027758	0.152236	-0.179994
2.255000	0.070400	-0.119336	-0.189735	0.028253	0.150189	-0.178442
2.260000	0.067737	-0.118110	-0.185847	0.029083	0.146407	-0.175490
2.265000	0.064670	-0.116759	-0.181429	0.030073	0.142086	-0.172159
2.270000	0.062007	-0.116081	-0.178088	0.031219	0.138619	-0.169838
2.275000	0.059824	-0.116039	-0.175862	0.032456	0.136073	-0.168529
2.280000	0.057403	-0.116273	-0.173675	0.033988	0.133413	-0.167401
2.285000	0.054332	-0.116817	-0.171149	0.036076	0.130181	-0.166258
2.290000	0.050346	-0.118017	-0.168363	0.039070	0.126271	-0.165341
2.295000	0.045395	-0.120129	-0.165523	0.043148	0.121773	-0.164921
2.300000	0.040184	-0.122858	-0.163042	0.047731	0.117333	-0.165065
2.305000	0.035792	-0.125254	-0.161047	0.051651	0.113645	-0.165296
2.310000	0.033487	-0.126509	-0.159996	0.053707	0.111707	-0.165414
2.315000	0.034584	-0.126193	-0.160777	0.052891	0.112791	-0.165682
2.320000	0.040024	-0.124495	-0.164519	0.048769	0.118093	-0.166862
2.325000	0.050073	-0.121866	-0.171938	0.041450	0.128178	-0.169628
2.330000	0.063625	-0.118877	-0.182503	0.031900	0.142102	-0.174002
2.335000	0.079071	-0.115799	-0.194870	0.021205	0.158160	-0.179365
2.340000	0.094894	-0.111974	-0.206868	0.009861	0.174222	-0.184083
2.345000	0.109591	-0.107351	-0.216942	-0.001293	0.188524	-0.187231
2.350000	0.121903	-0.103342	-0.225246	-0.010716	0.200426	-0.189710
2.355000	0.131165	-0.100603	-0.231768	-0.017645	0.209539	-0.191894
2.360000	0.137264	-0.098488	-0.235752	-0.022387	0.215361	-0.192974
2.365000	0.140232	-0.097068	-0.237300	-0.024921	0.217968	-0.193048
2.370000	0.140101	-0.097334	-0.237436	-0.024691	0.217971	-0.193280
2.375000	0.136989	-0.099151	-0.236139	-0.021846	0.215425	-0.193580
2.380000	0.131556	-0.101440	-0.232996	-0.017387	0.210474	-0.193087
2.385000	0.125212	-0.103554	-0.228766	-0.012504	0.204369	-0.191865
2.390000	0.120566	-0.104333	-0.224899	-0.009372	0.199454	-0.190082
2.395000	0.125050	-0.099244	-0.224294	-0.014899	0.201694	-0.186795
2.400000	0.141814	-0.079269	-0.221083	-0.036111	0.209519	-0.173408
2.405000	0.159373	-0.024629	-0.184002	-0.077794	0.198248	-0.120454
2.410000	0.158604	0.091341	-0.067264	-0.144305	0.130405	0.013901
2.415000	0.121840	0.283205	0.161365	-0.233853	-0.022820	0.256673
2.420000	0.039627	0.537667	0.498040	-0.333301	-0.264664	0.597965
2.425000	-0.077526	0.804399	0.881926	-0.419660	-0.553940	0.973600
2.430000	-0.200983	1.016240	1.217223	-0.470689	-0.818801	1.289490
2.435000	-0.300020	1.122203	1.422223	-0.474687	-0.994337	1.469024
2.440000	-0.355648	1.104484	1.460133	-0.432340	-1.048341	1.480682
2.445000	-0.361980	0.974311	1.336291	-0.353529	-0.980497	1.334026
2.450000	-0.319473	0.761610	1.081084	-0.255268	-0.808612	1.063879
2.455000	-0.239174	0.513774	0.752948	-0.158540	-0.572802	0.731342
2.460000	-0.143162	0.281793	0.424955	-0.080039	-0.328002	0.408041
2.465000	-0.053715	0.099081	0.152795	-0.026192	-0.119229	0.145421
2.470000	0.015359	-0.024314	-0.039673	0.005170	0.031773	-0.036943
2.475000	0.059944	-0.095158	-0.155102	0.020331	0.124157	-0.144488
2.480000	0.082787	-0.128108	-0.210895	0.026166	0.169557	-0.195723
2.485000	0.090275	-0.138992	-0.229267	0.028127	0.184488	-0.212614
2.490000	0.088776	-0.140458	-0.229234	0.029838	0.183603	-0.213442
2.495000	0.083080	-0.139992	-0.223071	0.032858	0.176756	-0.209615
2.500000	0.076576	-0.140516	-0.217092	0.036916	0.169549	-0.206465
2.505000	0.071402	-0.141618	-0.213020	0.040539	0.164211	-0.204751
2.510000	0.069114	-0.142225	-0.211339	0.042211	0.161919	-0.204131
2.515000	0.070787	-0.141833	-0.212621	0.041018	0.163626	-0.204644
2.520000	0.076952	-0.140439	-0.217390	0.036654	0.169938	-0.206593
2.525000	0.087577	-0.138234	-0.225811	0.029247	0.180935	-0.210181
2.530000	0.101417	-0.135581	-0.236998	0.019725	0.195384	-0.215108
2.535000	0.116843	-0.132577	-0.249421	0.009084	0.211463	-0.220547
2.540000	0.132476	-0.128877	-0.261354	-0.002078	0.227378	-0.225300
2.545000	0.146870	-0.124500	-0.271370	-0.012915	0.241471	-0.228556
2.550000	0.158789	-0.120496	-0.279285	-0.022108	0.252922	-0.230813
2.555000	0.167616	-0.117414	-0.285030	-0.028984	0.261335	-0.232351
2.560000	0.173300	-0.114948	-0.288249	-0.033690	0.266475	-0.232786
2.565000	0.175677	-0.113682	-0.289359	-0.035793	0.268489	-0.232696
2.570000	0.174761	-0.114412	-0.289172	-0.034843	0.267852	-0.233009
2.575000	0.170870	-0.116570	-0.287440	-0.031350	0.264605	-0.233255
2.580000	0.164911	-0.118927	-0.283838	-0.026548	0.259085	-0.232537
2.585000	0.158394	-0.120864	-0.279258	-0.021668	0.252679	-0.231011
2.590000	0.152707	-0.122098	-0.274804	-0.017672	0.246823	-0.229152
2.595000	0.148201	-0.122434	-0.270635	-0.014876	0.241814	-0.226938
2.600000	0.144173	-0.122173	-0.266347	-0.012702	0.237014	-0.224312
2.605000	0.140285	-0.121832	-0.262117	-0.010653	0.232327	-0.221673
2.610000	0.136725	-0.121482	-0.258207	-0.008800	0.228014	-0.219214
2.615000	0.133812	-0.121091	-0.254903	-0.007344	0.224424	-0.217080
2.620000	0.131664	-0.120816	-0.252480	-0.006264	0.221786	-0.215522
2.625000	0.130299	-0.120514	-0.250813	-0.005650	0.220035	-0.214385
2.630000	0.129666	-0.120073	-0.249740	-0.005538	0.219050	-0.213512
2.635000	0.129589	-0.119667	-0.249256	-0.005729	0.218727	-0.212998
2.640000	0.129769	-0.119153	-0.248923	-0.006129	0.218638	-0.212509
2.645000	0.129635	-0.118346	-0.247981	-0.006518	0.218017	-0.211499
2.650000	0.128404	-0.117537	-0.245941	-0.006274	0.216128	-0.209854
2.655000	0.125938	-0.116534	-0.242472	-0.005429	0.212702	-0.207273
2.660000	0.122844	-0.115196	-0.238039	-0.004415	0.208356	-0.203940
2.665000	0.119977	-0.113835	-0.233812	-0.003546	0.204260	-0.200714
2.670000	0.117764	-0.113134	-0.230898	-0.002673	0.201300	-0.198626
2.675000	0.115520	-0.113127	-0.228646	-0.001382	0.198704	-0.197323
2.680000	0.112592	-0.113349	-0.225941	0.000437	0.195452	-0.195889
2.685000	0.108827	-0.114099	-0.222927	0.003044	0.191538	-0.194582
2.690000	0.104021	-0.116017	-0.220037	0.006926	0.187095	-0.194021
2.695000	0.098539	-0.118891	-0.217430	0.011750	0.182425	-0.194175
2.700000	0.093408	-0.121661	-0.215069	0.016312	0.178099	-0.194411
2.705000	0.089973	-0.123361	-0.213334	0.019276	0.175114	-0.194391
2.710000	0.089657	-0.123492	-0.213148	0.019535	0.174824	-0.194359
2.715000	0.093390	-0.121885	-0.215275	0.016452	0.178208	-0.194659
2.720000	0.101744	-0.119366	-0.221111	0.010174	0.186400	-0.196574
2.725000	0.114136	-0.116703	-0.230840	0.001482	0.199172	-0.200654
2.730000	0.128936	-0.113847	-0.242782	-0.008712	0.214611	-0.205900
2.735000	0.144604	-0.110458	-0.255063	-0.019714	0.230748	-0.211034
2.740000	0.159753	-0.106456	-0.266209	-0.030771	0.245929	-0.215158
2.745000	0.172907	-0.102501	-0.275407	-0.040649	0.258834	-0.218185
2.750000	0.183084	-0.099375	-0.282458	-0.048329	0.268780	-0.220451
2.755000	0.190066	-0.096930	-0.286996	-0.053772	0.275432	-0.221660
2.760000	0.193891	-0.095080	-0.288971	-0.057049	0.278780	-0.221732
2.765000	0.194476	-0.094444	-0.288920	-0.057753	0.279089	-0.221336
2.770000	0.191986	-0.095513	-0.287499	-0.055699	0.276831	-0.221132
2.775000	0.186842	-0.097774	-0.284617	-0.051423	0.272197	-0.220774
2.780000	0.180293	-0.100116	-0.280409	-0.046290	0.265987	-0.219696
2.785000	0.174425	-0.101667	-0.276092	-0.042007	0.260106	-0.218099
2.790000	0.175121	-0.099522	-0.274643	-0.043647	0.259671	-0.216024
2.795000	0.188424	-0.086387	-0.274811	-0.058911	0.267449	-0.208537
2.800000	0.207384	-0.046021	-0.253405	-0.093163	0.266037	-0.172873
2.805000	0.214107	0.047861	-0.166246	-0.151247	0.219597	-0.068350
2.810000	0.190094	0.215518	0.025423	-0.234180	0.095073	0.139107
2.815000	0.122115	0.454075	0.331960	-0.332663	-0.121154	0.453817
2.820000	0.013400	0.724279	0.710879	-0.425899	-0.402690	0.828589
2.825000	-0.111920	0.960221	1.072141	-0.489766	-0.683617	1.173384
2.830000	-0.221827	1.103194	1.325021	-0.508857	-0.893072	1.401930
2.835000	-0.292576	1.124632	1.417209	-0.480387	-0.987144	1.467532
2.840000	-0.314810	1.027909	1.342720	-0.411708	-0.956975	1.368683
2.845000	-0.287131	0.837422	1.124554	-0.317710	-0.815036	1.132747
2.850000	-0.216537	0.595294	0.811831	-0.218675	-0.593729	0.812404
2.855000	-0.122685	0.353339	0.476024	-0.133168	-0.345665	0.478833
2.860000	-0.029243	0.152264	0.181507	-0.071026	-0.121677	0.192702
2.865000	0.046781	0.009756	-0.037024	-0.032642	0.048385	-0.015743
2.870000	0.098572	-0.076561	-0.175133	-0.012709	0.158024	-0.145315
2.875000	0.127171	-0.119769	-0.246940	-0.004273	0.215993	-0.211719
2.880000	0.138287	-0.135872	-0.274158	-0.001394	0.238125	-0.236731
2.885000	0.138657	-0.139137	-0.277794	0.000277	0.240438	-0.240715
2.890000	0.133559	-0.139068	-0.272627	0.003181	0.234511	-0.237692
2.895000	0.126724	-0.139433	-0.266157	0.007338	0.226830	-0.234168
2.900000	0.120621	-0.140271	-0.260892	0.011344	0.220267	-0.231611
2.905000	0.117069	-0.140967	-0.258035	0.013797	0.216566	-0.230364
2.910000	0.117277	-0.140755	-0.258033	0.013555	0.216685	-0.230240
2.915000	0.121846	-0.139208	-0.261055	0.010024	0.221068	-0.231092
2.920000	0.131091	-0.137085	-0.268176	0.003461	0.230516	-0.233977
2.925000	0.144076	-0.134870	-0.278946	-0.005315	0.244232	-0.238917
2.930000	0.159107	-0.132238	-0.291345	-0.015513	0.260069	-0.244556
2.935000	0.174706	-0.128808	-0.303514	-0.026499	0.276100	-0.249601
2.940000	0.189474	-0.124725	-0.314199	-0.037382	0.290795	-0.253413
2.945000	0.202023	-0.120762	-0.322785	-0.046916	0.302998	-0.256082
2.950000	0.211520	-0.117420	-0.328940	-0.054329	0.312035	-0.257706
2.955000	0.217834	-0.114808	-0.332642	-0.059482	0.317817	-0.258335
2.960000	0.220959	-0.113177	-0.334136	-0.062228	0.320484	-0.258257
2.965000	0.220888	-0.113046	-0.333934	-0.062263	0.320326	-0.258064
2.970000	0.217848	-0.114517	-0.332365	-0.059658	0.317665	-0.258007
2.975000	0.212411	-0.116758	-0.329169	-0.055225	0.312681	-0.257456
2.980000	0.205899	-0.118823	-0.324722	-0.050273	0.306354	-0.256081
2.985000	0.199816	-0.120343	-0.320159	-0.045884	0.300208	-0.254324
2.990000	0.194934	-0.121196	-0.316130	-0.042572	0.295063	-0.252490
2.995000	0.190705	-0.121304	-0.312009	-0.040069	0.290242	-0.250174
3.000000	0.186564	-0.120902	-0.307466	-0.037910	0.285229	-0.247319
3.005000	0.182628	-0.120507	-0.303135	-0.035865	0.280455	-0.244590
3.010000	0.179243	-0.120259	-0.299502	-0.034054	0.276404	-0.242349
3.015000	0.176698	-0.120124	-0.296821	-0.032663	0.273386	-0.240723
3.020000	0.175136	-0.120053	-0.295190	-0.031802	0.271543	-0.239741
3.025000	0.174474	-0.119742	-0.294216	-0.031599	0.270598	-0.238999
3.030000	0.174376	-0.119089	-0.293465	-0.031920	0.270108	-0.238188
3.035000	0.174610	-0.118490	-0.293099	-0.032401	0.270032	-0.237631
3.040000	0.174829	-0.118017	-0.292846	-0.032800	0.270012	-0.237212
3.045000	0.174129	-0.117381	-0.291509	-0.032763	0.268836	-0.236073
3.050000	0.171985	-0.116306	-0.288291	-0.032146	0.265740	-0.233594
3.055000	0.168840	-0.114875	-0.283715	-0.031157	0.261282	-0.230125
3.060000	0.165538	-0.113430	-0.278967	-0.030085	0.256635	-0.226550
3.065000	0.162665	-0.112317	-0.274982	-0.029069	0.252676	-0.223607
3.070000	0.159948	-0.111930	-0.271878	-0.027723	0.249315	-0.221592
3.075000	0.156733	-0.112141	-0.268874	-0.025745	0.245724	-0.219979
3.080000	0.152783	-0.112716	-0.265499	-0.023132	0.241495	-0.218363
3.085000	0.147849	-0.114317	-0.262166	-0.019359	0.236722	-0.217363
3.090000	0.142198	-0.117096	-0.259294	-0.014493	0.231801	-0.217309
3.095000	0.136732	-0.119935	-0.256667	-0.009698	0.227129	-0.217432
3.100000	0.132661	-0.121887	-0.254548	-0.006220	0.223555	-0.217335
3.105000	0.131456	-0.122772	-0.254228	-0.005014	0.222675	-0.217661
3.110000	0.134123	-0.122046	-0.256169	-0.006973	0.225335	-0.218362
3.115000	0.141215	-0.119809	-0.261024	-0.012359	0.232232	-0.219874
3.120000	0.152488	-0.117105	-0.269593	-0.020428	0.243689	-0.223260
3.125000	0.166489	-0.114407	-0.280896	-0.030070	0.258298	-0.228228
3.130000	0.181629	-0.111023	-0.292653	-0.040764	0.273827	-0.233063
3.135000	0.196653	-0.106700	-0.303354	-0.051934	0.288679	-0.236745
3.140000	0.210217	-0.102426	-0.312643	-0.062233	0.301874	-0.239640
3.145000	0.221115	-0.098960	-0.320075	-0.070526	0.312456	-0.241930
3.150000	0.228833	-0.096274	-0.325107	-0.076533	0.319817	-0.243285
3.155000	0.233422	-0.094299	-0.327721	-0.080322	0.323976	-0.243654
3.160000	0.234682	-0.093385	-0.328067	-0.081578	0.324903	-0.243325
3.165000	0.232696	-0.094042	-0.326738	-0.080052	0.322990	-0.242938
3.170000	0.227939	-0.096255	-0.324194	-0.076028	0.318774	-0.242746
3.175000	0.221584	-0.099063	-0.320647	-0.070737	0.313057	-0.242320
3.180000	0.215218	-0.101155	-0.316373	-0.065855	0.306914	-0.241060
3.185000	0.213380	-0.100101	-0.313481	-0.065401	0.304183	-0.238782
3.190000	0.223536	-0.090102	-0.313639	-0.077038	0.310138	-0.233100
3.195000	0.242319	-0.057787	-0.300106	-0.106540	0.313169	-0.206629
3.200000	0.253495	0.021352	-0.232143	-0.158683	0.280383	-0.121700
3.205000	0.238122	0.170419	-0.067703	-0.235871	0.176569	0.059303
3.210000	0.180916	0.393802	0.212886	-0.331814	-0.018458	0.350271
3.215000	0.080158	0.661898	0.581740	-0.428426	-0.289588	0.718014
3.220000	-0.044214	0.912063	0.956277	-0.501052	-0.577634	1.078686
3.225000	-0.160487	1.080902	1.241389	-0.531401	-0.809373	1.340775
3.230000	-0.242054	1.131916	1.373970	-0.513762	-0.933011	1.446773
3.235000	-0.276398	1.061566	1.337965	-0.453317	-0.932052	1.385369
3.240000	-0.260638	0.889630	1.150268	-0.363149	-0.814587	1.177735
3.245000	-0.199156	0.654607	0.853763	-0.262954	-0.607903	0.870857
3.250000	-0.108949	0.408220	0.517169	-0.172785	-0.361489	0.534274
3.255000	-0.013678	0.195137	0.208815	-0.104765	-0.128456	0.233222
3.260000	0.067443	0.038675	-0.028768	-0.061267	0.055547	0.005720
3.265000	0.125138	-0.059485	-0.184624	-0.037905	0.178841	-0.140936
3.270000	0.158860	-0.111340	-0.270200	-0.027435	0.247717	-0.220282
3.275000	0.173525	-0.132829	-0.306354	-0.023496	0.277058	-0.253562
3.280000	0.175922	-0.138291	-0.314213	-0.021726	0.282979	-0.261253
3.285000	0.171689	-0.138387	-0.310077	-0.019227	0.278148	-0.258921
3.290000	0.164951	-0.138530	-0.303481	-0.015254	0.270449	-0.255195
3.295000	0.158400	-0.139286	-0.297687	-0.011035	0.263322	-0.252286
3.300000	0.153882	-0.139842	-0.293723	-0.008106	0.258425	-0.250319
3.305000	0.152868	-0.139900	-0.292768	-0.007487	0.257288	-0.249801
3.310000	0.156134	-0.138857	-0.294991	-0.009975	0.260457	-0.250483
3.315000	0.164061	-0.136799	-0.300859	-0.015740	0.268422	-0.252682
3.320000	0.176037	-0.134468	-0.310505	-0.024000	0.280905	-0.256905
3.325000	0.190507	-0.131874	-0.322381	-0.033852	0.296116	-0.262265
3.330000	0.205924	-0.128445	-0.334369	-0.044733	0.311938	-0.267206
3.335000	0.220892	-0.124260	-0.345153	-0.055790	0.326806	-0.271016
3.340000	0.233935	-0.120199	-0.354134	-0.065666	0.339522	-0.273856
3.345000	0.244022	-0.116747	-0.360769	-0.073482	0.349176	-0.275694
3.350000	0.250931	-0.113803	-0.364734	-0.079171	0.355454	-0.276283
3.355000	0.254822	-0.111742	-0.366564	-0.082607	0.358758	-0.276150
3.360000	0.255517	-0.111238	-0.366756	-0.083299	0.359269	-0.275970
3.365000	0.252994	-0.112413	-0.365408	-0.081164	0.357034	-0.275870
3.370000	0.247733	-0.114838	-0.362571	-0.076727	0.352359	-0.275632
3.375000	0.241032	-0.117439	-0.358471	-0.071356	0.346123	-0.274767
3.380000	0.234490	-0.119324	-0.353815	-0.066491	0.339658	-0.273167
3.385000	0.229182	-0.120442	-0.349624	-0.062781	0.334173	-0.271393
3.390000	0.224782	-0.120871	-0.345653	-0.059993	0.329340	-0.269347
3.395000	0.220477	-0.120495	-0.340973	-0.057725	0.324153	-0.266428
3.400000	0.216215	-0.119805	-0.336020	-0.055662	0.318833	-0.263171
3.405000	0.212448	-0.119296	-0.331743	-0.053781	0.314189	-0.260407
3.410000	0.209472	-0.118794	-0.328266	-0.052353	0.310463	-0.258110
3.415000	0.207503	-0.117910	-0.325413	-0.051727	0.307679	-0.255952
3.420000	0.206637	-0.116930	-0.323566	-0.051792	0.306113	-0.254320
3.425000	0.206506	-0.116199	-0.322705	-0.052139	0.305540	-0.253401
3.430000	0.206624	-0.115603	-0.322226	-0.052551	0.305332	-0.252781
3.435000	0.206692	-0.115282	-0.321974	-0.052775	0.305225	-0.252450
3.440000	0.205948	-0.115190	-0.321138	-0.052399	0.304313	-0.251914
3.445000	0.203679	-0.114563	-0.318241	-0.051451	0.301330	-0.249879
3.450000	0.200268	-0.113382	-0.313650	-0.050164	0.296710	-0.246547
3.455000	0.196655	-0.112520	-0.309175	-0.048575	0.292041	-0.243465
3.460000	0.193593	-0.112191	-0.305784	-0.046997	0.288315	-0.241318
3.465000	0.190951	-0.112114	-0.303065	-0.045517	0.285220	-0.239703
3.470000	0.187897	-0.112250	-0.300148	-0.043675	0.281773	-0.238098
3.475000	0.184090	-0.112607	-0.296697	-0.041270	0.277582	-0.236312
3.480000	0.179277	-0.113582	-0.292859	-0.037929	0.272588	-0.234659
3.485000	0.173639	-0.115887	-0.289526	-0.033343	0.267408	-0.234065
3.490000	0.167967	-0.118955	-0.286922	-0.028297	0.262630	-0.234334
3.495000	0.163270	-0.121063	-0.284334	-0.024368	0.258424	-0.234056
3.500000	0.160997	-0.121785	-0.282782	-0.022640	0.256216	-0.233577
3.505000	0.162456	-0.121026	-0.283482	-0.023919	0.257462	-0.233542
3.510000	0.168412	-0.118794	-0.287206	-0.028647	0.263051	-0.234404
3.515000	0.178827	-0.115867	-0.294694	-0.036350	0.273388	-0.237038
3.520000	0.192408	-0.113126	-0.305534	-0.045774	0.287487	-0.241713
3.525000	0.207552	-0.110227	-0.317779	-0.056190	0.303300	-0.247109
3.530000	0.222879	-0.106311	-0.329189	-0.067301	0.318736	-0.251436
3.535000	0.236916	-0.101961	-0.338877	-0.077916	0.332434	-0.254518
3.540000	0.248317	-0.098379	-0.346696	-0.086567	0.343531	-0.256964
3.545000	0.256475	-0.095519	-0.351994	-0.092928	0.351299	-0.258371
3.550000	0.261489	-0.093333	-0.354822	-0.097084	0.355827	-0.258743
3.555000	0.263315	-0.092527	-0.355843	-0.098604	0.357471	-0.258866
3.560000	0.261919	-0.093331	-0.355249	-0.097334	0.356322	-0.258988
3.565000	0.257573	-0.095398	-0.352971	-0.093632	0.352498	-0.258866
3.570000	0.251180	-0.098030	-0.349211	-0.088421	0.346636	-0.258215
3.575000	0.244279	-0.100111	-0.344391	-0.083235	0.339869	-0.256633
3.580000	0.240324	-0.099919	-0.340244	-0.081063	0.335191	-0.254128
3.585000	0.247149	-0.092903	-0.340052	-0.089054	0.339020	-0.249967
3.590000	0.264993	-0.068042	-0.333035	-0.113710	0.345271	-0.231562
3.595000	0.279756	-0.002456	-0.282212	-0.160099	0.324452	-0.164353
3.600000	0.272176	0.129258	-0.142917	-0.231768	0.239654	-0.007886
3.605000	0.225623	0.336544	0.110920	-0.324567	0.066224	0.258343
3.610000	0.133958	0.598899	0.464941	-0.423115	-0.191093	0.614208
3.615000	0.012256	0.859543	0.847287	-0.503334	-0.482105	0.985438
3.620000	-0.108937	1.051772	1.160709	-0.544346	-0.733030	1.277376
3.625000	-0.200447	1.131527	1.331973	-0.537559	-0.884743	1.422302
3.630000	-0.246474	1.088625	1.335099	-0.486216	-0.913121	1.399337
3.635000	-0.242763	0.938216	1.180979	-0.401520	-0.821997	1.223517
3.640000	-0.191331	0.713778	0.905109	-0.301635	-0.633029	0.934665
3.645000	-0.106060	0.465406	0.571466	-0.207468	-0.391169	0.598638
3.650000	-0.010096	0.241551	0.251648	-0.133631	-0.151118	0.284749
3.655000	0.075487	0.070759	-0.004728	-0.084435	0.046313	0.038123
3.660000	0.138962	-0.040604	-0.179566	-0.056787	0.183903	-0.127115
3.665000	0.178031	-0.101757	-0.279788	-0.044037	0.264322	-0.220285
3.670000	0.196650	-0.128732	-0.325382	-0.039212	0.301395	-0.262183
3.675000	0.201391	-0.136719	-0.338110	-0.037338	0.311481	-0.274142
3.680000	0.198210	-0.137216	-0.335427	-0.035215	0.308095	-0.272880
3.685000	0.191610	-0.137045	-0.328655	-0.031503	0.300375	-0.268872
3.690000	0.184678	-0.137895	-0.322573	-0.027010	0.292861	-0.265851
3.695000	0.179390	-0.138702	-0.318092	-0.023491	0.287221	-0.263730
3.700000	0.177308	-0.138971	-0.316279	-0.022134	0.284973	-0.262838
3.705000	0.179447	-0.138390	-0.317837	-0.023705	0.287107	-0.263402
3.710000	0.186238	-0.136765	-0.323003	-0.028564	0.294011	-0.265447
3.715000	0.197309	-0.134514	-0.331823	-0.036255	0.305495	-0.269240
3.720000	0.211188	-0.132131	-0.343319	-0.045643	0.320145	-0.274501
3.725000	0.226262	-0.129051	-0.355314	-0.056125	0.335773	-0.279648
3.730000	0.241162	-0.124849	-0.366011	-0.067153	0.350551	-0.283398
3.735000	0.254573	-0.120532	-0.375105	-0.077388	0.363545	-0.286156
3.740000	0.265390	-0.116991	-0.382381	-0.085678	0.373990	-0.288312
3.745000	0.273042	-0.113979	-0.387021	-0.091835	0.381087	-0.289252
3.750000	0.277519	-0.111672	-0.389191	-0.095752	0.384925	-0.289174
3.755000	0.278766	-0.110838	-0.389604	-0.096953	0.385884	-0.288931
3.760000	0.276856	-0.111503	-0.388359	-0.095467	0.384062	-0.288595
3.765000	0.272047	-0.113199	-0.385246	-0.091711	0.379488	-0.287778
3.770000	0.265418	-0.115512	-0.380930	-0.086548	0.373169	-0.286621
3.775000	0.258576	-0.117631	-0.376207	-0.081374	0.366492	-0.285118
3.780000	0.252735	-0.118845	-0.371580	-0.077301	0.360449	-0.283147
3.785000	0.247910	-0.119362	-0.367272	-0.074217	0.355175	-0.280958
3.790000	0.243322	-0.119492	-0.362813	-0.071493	0.349952	-0.278459
3.795000	0.238719	-0.119221	-0.357940	-0.068993	0.344481	-0.275489
3.800000	0.234457	-0.118954	-0.353411	-0.066686	0.339406	-0.272720
3.805000	0.231025	-0.119025	-0.350050	-0.064663	0.335483	-0.270820
3.810000	0.228727	-0.118917	-0.347644	-0.063398	0.332768	-0.269369
3.815000	0.227746	-0.118124	-0.345870	-0.063291	0.331178	-0.267887
3.820000	0.227708	-0.117086	-0.344794	-0.063867	0.330534	-0.266666
3.825000	0.227962	-0.116089	-0.344051	-0.064590	0.330252	-0.265662
3.830000	0.227973	-0.115148	-0.343121	-0.065140	0.329721	-0.264582
3.835000	0.227107	-0.114504	-0.341612	-0.065011	0.328350	-0.263339
3.840000	0.224733	-0.113944	-0.338676	-0.063964	0.325284	-0.261320
3.845000	0.221094	-0.112745	-0.333839	-0.062555	0.320391	-0.257836
3.850000	0.217120	-0.111382	-0.328501	-0.061048	0.315014	-0.253967
3.855000	0.213671	-0.110624	-0.324295	-0.059494	0.310595	-0.251101
3.860000	0.210782	-0.110334	-0.321116	-0.057993	0.307091	-0.249098
3.865000	0.207685	-0.110392	-0.318077	-0.056172	0.303549	-0.247377
3.870000	0.203991	-0.110971	-0.314961	-0.053705	0.299617	-0.245912
3.875000	0.199512	-0.112334	-0.311846	-0.050332	0.295233	-0.244900
3.880000	0.194110	-0.114658	-0.308767	-0.045871	0.290336	-0.244465
3.885000	0.188339	-0.117658	-0.305997	-0.040807	0.285404	-0.244597
3.890000	0.183174	-0.120114	-0.303288	-0.036408	0.280859	-0.244451
3.895000	0.180012	-0.121072	-0.301084	-0.034029	0.277761	-0.243732
3.900000	0.180215	-0.120532	-0.300747	-0.034458	0.277683	-0.243225
3.905000	0.184666	-0.118799	-0.303465	-0.038029	0.281823	-0.243794
3.910000	0.193792	-0.116262	-0.310054	-0.044762	0.290896	-0.246134
3.915000	0.206637	-0.113609	-0.320246	-0.053710	0.304196	-0.250486
3.920000	0.221579	-0.110983	-0.332561	-0.063853	0.319933	-0.256080
3.925000	0.237122	-0.107489	-0.344611	-0.074843	0.335863	-0.261020
3.930000	0.251720	-0.103124	-0.354844	-0.085792	0.350199	-0.264408
3.935000	0.263872	-0.099300	-0.363172	-0.095016	0.362024	-0.267008
3.940000	0.272716	-0.096468	-0.369184	-0.101756	0.370601	-0.268845
3.945000	0.278245	-0.094004	-0.372249	-0.106372	0.375563	-0.269191
3.950000	0.280565	-0.092323	-0.372888	-0.108681	0.377271	-0.268589
3.955000	0.279700	-0.092420	-0.372120	-0.108126	0.376328	-0.268203
3.960000	0.275828	-0.094025	-0.369852	-0.104964	0.372783	-0.267820
3.965000	0.269659	-0.096329	-0.365988	-0.100072	0.366991	-0.266919
3.970000	0.262769	-0.098728	-0.361497	-0.094710	0.360420	-0.265711
3.975000	0.257778	-0.099771	-0.357550	-0.091225	0.355260	-0.264034
3.980000	0.261735	-0.095140	-0.356875	-0.096184	0.357155	-0.260971
3.985000	0.277790	-0.076208	-0.353999	-0.116384	0.364763	-0.248380
3.990000	0.294743	-0.023255	-0.317998	-0.156743	0.353766	-0.197023
3.995000	0.293764	0.090663	-0.203101	-0.221949	0.286865	-0.064916
4.000000	0.257399	0.280516	0.023117	-0.310565	0.135263	0.175302
4.005000	0.175860	0.533790	0.357930	-0.409717	-0.105118	0.514835
4.010000	0.058803	0.801098	0.742295	-0.496464	-0.394614	0.891078
4.015000	-0.065586	1.015103	1.080689	-0.548203	-0.661802	1.210006
4.020000	-0.166282	1.124112	1.290393	-0.553003	-0.841011	1.394014
4.025000	-0.223852	1.109761	1.333613	-0.511480	-0.899202	1.410682
4.030000	-0.232121	0.982701	1.214821	-0.433347	-0.835392	1.268739
4.035000	-0.191316	0.772148	0.963464	-0.335343	-0.666712	1.002055
4.040000	-0.112201	0.524925	0.637127	-0.238286	-0.432625	0.670911
4.045000	-0.016810	0.292055	0.308865	-0.158913	-0.188029	0.346941
4.050000	0.072391	0.107542	0.035150	-0.103884	0.021501	0.082383
4.055000	0.141425	-0.017703	-0.159128	-0.071431	0.173524	-0.102093
4.060000	0.185966	-0.089810	-0.275777	-0.055516	0.266587	-0.211071
4.065000	0.208593	-0.123456	-0.332049	-0.049154	0.312139	-0.262986
4.070000	0.215747	-0.134746	-0.350494	-0.046766	0.326919	-0.280153
4.075000	0.213777	-0.136576	-0.350353	-0.044572	0.325701	-0.281129
4.080000	0.207450	-0.136529	-0.343979	-0.040946	0.318368	-0.277421
4.085000	0.200220	-0.137427	-0.337647	-0.036253	0.310537	-0.274284
4.090000	0.194285	-0.138562	-0.332847	-0.032172	0.304340	-0.272168
4.095000	0.191297	-0.138923	-0.330221	-0.030238	0.301098	-0.270860
4.100000	0.192353	-0.138233	-0.330586	-0.031246	0.301919	-0.270673
4.105000	0.197985	-0.136579	-0.334564	-0.035453	0.307467	-0.272015
4.110000	0.208241	-0.134297	-0.342538	-0.042691	0.317992	-0.275301
4.115000	0.221848	-0.131816	-0.353664	-0.051980	0.332272	-0.280292
4.120000	0.237017	-0.129074	-0.366091	-0.062320	0.348204	-0.285884
4.125000	0.252240	-0.125412	-0.377652	-0.073224	0.363669	-0.290444
4.130000	0.266114	-0.121099	-0.387213	-0.083724	0.377198	-0.293474
4.135000	0.277400	-0.117451	-0.394851	-0.092347	0.388124	-0.295778
4.140000	0.285533	-0.114684	-0.400217	-0.098640	0.395918	-0.297278
4.145000	0.290532	-0.112235	-0.402767	-0.102940	0.400277	-0.297337
4.150000	0.292327	-0.110717	-0.403044	-0.104852	0.401472	-0.296620
4.155000	0.290938	-0.110977	-0.401915	-0.103901	0.400019	-0.296118
4.160000	0.286566	-0.112630	-0.399196	-0.100422	0.395925	-0.295503
4.165000	0.280046	-0.114896	-0.394942	-0.095350	0.389705	-0.294355
4.170000	0.272931	-0.117152	-0.390084	-0.089939	0.382792	-0.292853
4.175000	0.266660	-0.118686	-0.385345	-0.085433	0.376435	-0.291002
4.180000	0.261600	-0.119147	-0.380747	-0.082245	0.370859	-0.288614
4.185000	0.257067	-0.118995	-0.376063	-0.079716	0.365538	-0.285822
4.190000	0.252593	-0.118620	-0.371213	-0.077349	0.360154	-0.282805
4.195000	0.248320	-0.118062	-0.366381	-0.075204	0.354898	-0.279693
4.200000	0.244653	-0.117596	-0.362249	-0.073357	0.350395	-0.277039
4.205000	0.241874	-0.117433	-0.359306	-0.071846	0.347091	-0.275245
4.210000	0.240020	-0.117193	-0.357213	-0.070914	0.344813	-0.273899
4.215000	0.238966	-0.116663	-0.355630	-0.070612	0.343290	-0.272678
4.220000	0.238461	-0.116038	-0.354499	-0.070681	0.342345	-0.271664
4.225000	0.238294	-0.115326	-0.353620	-0.070995	0.341741	-0.270746
4.230000	0.237897	-0.114545	-0.352441	-0.071217	0.340832	-0.269614
4.235000	0.236361	-0.113940	-0.350301	-0.070680	0.338709	-0.268029
4.240000	0.233477	-0.113067	-0.346545	-0.069519	0.334876	-0.265357
4.245000	0.229865	-0.111691	-0.341556	-0.068228	0.329910	-0.261682
4.250000	0.226362	-0.110429	-0.336791	-0.066934	0.325137	-0.258202
4.255000	0.223341	-0.109881	-0.333222	-0.065506	0.321331	-0.255826
4.260000	0.220217	-0.109786	-0.330003	-0.063757	0.317669	-0.253912
4.265000	0.216553	-0.109954	-0.326507	-0.061545	0.313536	-0.251991
4.270000	0.212279	-0.110749	-0.323028	-0.058619	0.309060	-0.250441
4.275000	0.207137	-0.112634	-0.319770	-0.054561	0.304210	-0.249648
4.280000	0.201381	-0.115451	-0.316832	-0.049611	0.299190	-0.249579
4.285000	0.195869	-0.118193	-0.314062	-0.044846	0.294409	-0.249562
4.290000	0.191888	-0.119768	-0.311656	-0.041638	0.290721	-0.249083
4.295000	0.190808	-0.119766	-0.310574	-0.041017	0.289473	-0.248457
4.300000	0.193676	-0.118280	-0.311956	-0.043530	0.291927	-0.248397
4.305000	0.201244	-0.115976	-0.317219	-0.049230	0.299335	-0.250105
4.310000	0.213053	-0.113379	-0.326432	-0.057547	0.311472	-0.253925
4.315000	0.227447	-0.110667	-0.338114	-0.067423	0.326527	-0.259104
4.320000	0.242748	-0.107536	-0.350284	-0.078065	0.342387	-0.264322
4.325000	0.257451	-0.103642	-0.361093	-0.088802	0.357117	-0.268315
4.330000	0.270130	-0.099570	-0.369700	-0.098472	0.369406	-0.270933
4.335000	0.279850	-0.096234	-0.376084	-0.106011	0.378703	-0.272692
4.340000	0.286420	-0.093455	-0.379876	-0.111408	0.384686	-0.273278
4.345000	0.289908	-0.091180	-0.381088	-0.114735	0.387399	-0.272664
4.350000	0.290138	-0.090408	-0.380545	-0.115314	0.387219	-0.271905
4.355000	0.287262	-0.091705	-0.378967	-0.112904	0.384647	-0.271743
4.360000	0.281724	-0.094209	-0.375933	-0.108262	0.379699	-0.271436
4.365000	0.274740	-0.096713	-0.371453	-0.102783	0.373079	-0.270296
4.370000	0.268284	-0.098402	-0.366686	-0.098082	0.366600	-0.268518
4.375000	0.268158	-0.096170	-0.364328	-0.099297	0.365165	-0.265868
4.380000	0.280618	-0.082947	-0.363565	-0.114126	0.371919	-0.257793
4.385000	0.299083	-0.043160	-0.342243	-0.147757	0.370270	-0.222513
4.390000	0.305882	0.049173	-0.256709	-0.204991	0.324811	-0.119821
4.395000	0.282372	0.214789	-0.067583	-0.287036	0.202047	0.084989
4.400000	0.215001	0.451609	0.236608	-0.384867	-0.012475	0.397342
4.405000	0.106651	0.721438	0.614787	-0.478098	-0.293372	0.771470
4.410000	-0.018888	0.958807	0.977695	-0.542662	-0.575377	1.118039
4.415000	-0.129774	1.104363	1.234138	-0.562679	-0.787455	1.350133
4.420000	-0.202049	1.128599	1.330647	-0.534944	-0.884902	1.419846
4.425000	-0.226054	1.034365	1.260419	-0.466679	-0.858215	1.324893
4.430000	-0.200234	0.845631	1.045865	-0.372620	-0.719435	1.092055
4.435000	-0.131218	0.604115	0.735333	-0.273027	-0.500303	0.773331
4.440000	-0.038352	0.361807	0.400159	-0.186747	-0.253174	0.439921
4.445000	0.054616	0.159700	0.105083	-0.123735	-0.029137	0.152872
4.450000	0.130543	0.015793	-0.114750	-0.084487	0.141620	-0.057133
4.455000	0.182419	-0.071814	-0.254233	-0.063857	0.252101	-0.188244
4.460000	0.211090	-0.115929	-0.327018	-0.054941	0.310677	-0.255735
4.465000	0.222170	-0.132624	-0.354794	-0.051699	0.333110	-0.281411
4.470000	0.222409	-0.136204	-0.358614	-0.049770	0.335454	-0.285683
4.475000	0.217109	-0.136111	-0.353220	-0.046764	0.329280	-0.282516
4.480000	0.210048	-0.136289	-0.346337	-0.042585	0.321229	-0.278644
4.485000	0.203711	-0.137099	-0.340810	-0.038459	0.314379	-0.275920
4.490000	0.199842	-0.137879	-0.337721	-0.035774	0.310362	-0.274588
4.495000	0.199619	-0.137839	-0.337458	-0.035669	0.310081	-0.274412
4.500000	0.203675	-0.136641	-0.340316	-0.038702	0.314073	-0.275371
4.505000	0.212319	-0.134710	-0.347029	-0.044807	0.322939	-0.278132
4.510000	0.224551	-0.132298	-0.356849	-0.053263	0.335672	-0.282409
4.515000	0.238758	-0.129415	-0.368173	-0.063129	0.350412	-0.287283
4.520000	0.253615	-0.125828	-0.379444	-0.073778	0.365497	-0.291719
4.525000	0.267817	-0.121404	-0.389222	-0.084532	0.379341	-0.294810
4.530000	0.279969	-0.117142	-0.397111	-0.094008	0.390912	-0.296904
4.535000	0.289130	-0.113977	-0.403107	-0.101124	0.399663	-0.298539
4.540000	0.295094	-0.111852	-0.406946	-0.105795	0.405322	-0.299528
4.545000	0.297796	-0.110615	-0.408411	-0.108069	0.407729	-0.299660
4.550000	0.297189	-0.110810	-0.407999	-0.107606	0.407140	-0.299535
4.555000	0.293548	-0.112550	-0.406098	-0.104499	0.403941	-0.299442
4.560000	0.287489	-0.114877	-0.402366	-0.099658	0.398288	-0.298630
4.565000	0.280348	-0.116981	-0.397330	-0.094320	0.391257	-0.296937
4.570000	0.273631	-0.118503	-0.392134	-0.089563	0.384379	-0.294816
4.575000	0.268110	-0.119128	-0.387238	-0.086015	0.378365	-0.292350
4.580000	0.263287	-0.118911	-0.382198	-0.083355	0.372671	-0.289316
4.585000	0.258627	-0.118377	-0.377004	-0.080973	0.366982	-0.286008
4.590000	0.254206	-0.117952	-0.372158	-0.078666	0.361632	-0.282965
4.595000	0.250337	-0.117553	-0.367890	-0.076663	0.356933	-0.280270
4.600000	0.247309	-0.117128	-0.364438	-0.075160	0.353192	-0.278032
4.605000	0.245309	-0.116739	-0.362048	-0.074230	0.350658	-0.276428
4.610000	0.244285	-0.116066	-0.360351	-0.074027	0.349086	-0.275059
4.615000	0.243894	-0.115092	-0.358986	-0.074363	0.348073	-0.273709
4.620000	0.243752	-0.114283	-0.358035	-0.074749	0.347442	-0.272693
4.625000	0.243452	-0.113781	-0.357233	-0.074865	0.346806	-0.271940
4.630000	0.242192	-0.113408	-0.355600	-0.074353	0.345135	-0.270782
4.635000	0.239554	-0.112759	-0.352313	-0.073205	0.341715	-0.268510
4.640000	0.235961	-0.111561	-0.347521	-0.071822	0.336874	-0.265051
4.645000	0.232189	-0.110176	-0.342365	-0.070444	0.331719	-0.261275
4.650000	0.228836	-0.109305	-0.338141	-0.069011	0.327344	-0.258333
4.655000	0.225593	-0.109303	-0.334896	-0.067140	0.323598	-0.256458
4.660000	0.221849	-0.109719	-0.331568	-0.064739	0.319516	-0.254777
4.665000	0.217425	-0.110281	-0.327706	-0.061859	0.314731	-0.252872
4.670000	0.212154	-0.111807	-0.323961	-0.057936	0.309526	-0.251590
4.675000	0.206177	-0.114456	-0.320632	-0.052955	0.304153	-0.251198
4.680000	0.200276	-0.117184	-0.317460	-0.047974	0.298915	-0.250942
4.685000	0.195684	-0.119022	-0.314706	-0.044260	0.294674	-0.250413
4.690000	0.193827	-0.119657	-0.313485	-0.042822	0.292897	-0.250075
4.695000	0.195764	-0.118696	-0.314460	-0.044495	0.294578	-0.250082
4.700000	0.202212	-0.116647	-0.318859	-0.049401	0.300840	-0.251439
4.705000	0.213069	-0.114342	-0.327412	-0.057000	0.312047	-0.255047
4.710000	0.226808	-0.111722	-0.338530	-0.066445	0.326398	-0.259953
4.715000	0.241698	-0.108341	-0.350039	-0.076994	0.341640	-0.264646
4.720000	0.256478	-0.104104	-0.360582	-0.087973	0.356260	-0.268287
4.725000	0.269788	-0.099588	-0.369376	-0.098265	0.369021	-0.270757
4.730000	0.280386	-0.095694	-0.376080	-0.106632	0.379010	-0.272379
4.735000	0.287754	-0.092768	-0.380521	-0.112575	0.385828	-0.273253
4.740000	0.291941	-0.090797	-0.382737	-0.116130	0.389525	-0.273395
4.745000	0.292786	-0.090104	-0.382890	-0.117018	0.390101	-0.273083
4.750000	0.290422	-0.091119	-0.381541	-0.115068	0.387958	-0.272890
4.755000	0.285259	-0.093420	-0.378679	-0.110759	0.383325	-0.272566
4.760000	0.278349	-0.095907	-0.374256	-0.105333	0.376782	-0.271449
4.765000	0.271413	-0.097860	-0.369273	-0.100201	0.369900	-0.269699
4.770000	0.268936	-0.097233	-0.366169	-0.099133	0.366678	-0.267545
4.775000	0.278419	-0.087968	-0.366387	-0.109957	0.372278	-0.262321
4.780000	0.296842	-0.056663	-0.353505	-0.138667	0.375478	-0.236811
4.785000	0.308130	0.020956	-0.287173	-0.189998	0.343698	-0.153700
4.790000	0.293354	0.168264	-0.125091	-0.266515	0.241589	0.024926
4.795000	0.237051	0.390089	0.153038	-0.362079	0.048505	0.313574
4.800000	0.136962	0.657601	0.520638	-0.458741	-0.221515	0.680256
4.805000	0.012485	0.908742	0.896258	-0.531871	-0.510246	1.042117
4.810000	-0.104898	1.079923	1.184821	-0.562931	-0.744619	1.307550
4.815000	-0.188215	1.134030	1.322245	-0.546066	-0.872064	1.418131
4.820000	-0.224413	1.066797	1.291211	-0.486350	-0.875046	1.361396
4.825000	-0.210494	0.897606	1.108099	-0.396704	-0.761290	1.157994
4.830000	-0.150574	0.664274	0.814848	-0.296584	-0.557387	0.853971
4.835000	-0.061287	0.417923	0.479210	-0.205904	-0.312056	0.517960
4.840000	0.033660	0.203512	0.169852	-0.136931	-0.078631	0.215562
4.845000	0.114796	0.045195	-0.069601	-0.092371	0.106462	-0.014091
4.850000	0.172660	-0.054697	-0.227357	-0.068106	0.230949	-0.162844
4.855000	0.206557	-0.107845	-0.314402	-0.056992	0.300776	-0.243784
4.860000	0.221337	-0.130136	-0.351474	-0.052655	0.330712	-0.278057
4.865000	0.223785	-0.136120	-0.359905	-0.050613	0.336993	-0.286380
4.870000	0.219468	-0.136494	-0.355962	-0.047905	0.332225	-0.284320
4.875000	0.212377	-0.136426	-0.348803	-0.043850	0.323997	-0.280147
4.880000	0.205311	-0.136893	-0.342204	-0.039501	0.316108	-0.276607
4.885000	0.200297	-0.137524	-0.337820	-0.036242	0.310682	-0.274440
4.890000	0.198807	-0.137666	-0.336473	-0.035299	0.309044	-0.273745
4.895000	0.201591	-0.136478	-0.338069	-0.037593	0.311573	-0.273980
4.900000	0.209070	-0.134347	-0.343417	-0.043141	0.318978	-0.275837
4.905000	0.220700	-0.132044	-0.352745	-0.051185	0.331078	-0.279893
4.910000	0.234813	-0.129409	-0.364222	-0.060855	0.345853	-0.284998
4.915000	0.249825	-0.125859	-0.375684	-0.071572	0.361138	-0.289566
4.920000	0.264399	-0.121492	-0.385890	-0.082507	0.375444	-0.292937
4.925000	0.277125	-0.117262	-0.394387	-0.092296	0.387697	-0.295401
4.930000	0.286910	-0.113901	-0.400810	-0.099887	0.397055	-0.297168
4.935000	0.293403	-0.111392	-0.404795	-0.105084	0.403105	-0.298021
4.940000	0.296663	-0.109587	-0.406249	-0.108008	0.405826	-0.297818
4.945000	0.296618	-0.109039	-0.405658	-0.108299	0.405459	-0.297160
4.950000	0.293522	-0.110222	-0.403744	-0.105828	0.402566	-0.296738
4.955000	0.287899	-0.112541	-0.400440	-0.101243	0.397412	-0.296169
4.960000	0.280918	-0.114768	-0.395686	-0.095927	0.390637	-0.294711
4.965000	0.274090	-0.116138	-0.390228	-0.091194	0.383544	-0.292350
4.970000	0.268408	-0.116792	-0.385200	-0.087536	0.377361	-0.289825
4.975000	0.263590	-0.117004	-0.380594	-0.084632	0.371920	-0.287288
4.980000	0.258910	-0.116760	-0.375670	-0.082071	0.366375	-0.284305
4.985000	0.254301	-0.116428	-0.370729	-0.079601	0.360861	-0.281260
4.990000	0.250155	-0.116342	-0.366497	-0.077257	0.356024	-0.278767
4.995000	0.246810	-0.116269	-0.363079	-0.075368	0.352119	-0.276751
5.000000	0.244482	-0.115955	-0.360436	-0.074205	0.349249	-0.275044
5.005000	0.243275	-0.115448	-0.358723	-0.073801	0.347563	-0.273762
5.010000	0.242763	-0.114655	-0.357418	-0.073963	0.346515	-0.272551
5.015000	0.242505	-0.113609	-0.356114	-0.074418	0.345613	-0.271195
5.020000	0.242194	-0.112925	-0.355118	-0.074633	0.344858	-0.270225
5.025000	0.241001	-0.112706	-0.353707	-0.074071	0.343354	-0.269283
5.030000	0.238294	-0.112093	-0.350387	-0.072862	0.339875	-0.267012
5.035000	0.234433	-0.110876	-0.345309	-0.071336	0.334714	-0.263378
5.040000	0.230356	-0.109861	-0.340218	-0.069568	0.329421	-0.259853
5.045000	0.226815	-0.109291	-0.336106	-0.067852	0.325002	-0.257150
5.050000	0.223655	-0.109213	-0.332868	-0.066073	0.321308	-0.255235
5.055000	0.220110	-0.109399	-0.329509	-0.063919	0.317323	-0.253404
5.060000	0.215919	-0.109609	-0.325528	-0.061378	0.312604	-0.251226
5.065000	0.210885	-0.110560	-0.321445	-0.057923	0.307341	-0.249418
5.070000	0.205013	-0.113038	-0.318051	-0.053102	0.301991	-0.248889
5.075000	0.198980	-0.116145	-0.315125	-0.047825	0.296819	-0.248994
5.080000	0.193870	-0.118075	-0.311946	-0.043760	0.292033	-0.248273
5.085000	0.191095	-0.118645	-0.309740	-0.041829	0.289157	-0.247328
5.090000	0.191858	-0.117915	-0.309773	-0.042691	0.289617	-0.246925
5.095000	0.196954	-0.115807	-0.312761	-0.046850	0.294284	-0.247434
5.100000	0.206636	-0.113145	-0.319780	-0.053977	0.303926	-0.249949
5.105000	0.219668	-0.110709	-0.330377	-0.062908	0.317568	-0.254661
5.110000	0.234323	-0.108004	-0.342327	-0.072930	0.332929	-0.259998
5.115000	0.249269	-0.104461	-0.353729	-0.083605	0.348141	-0.264536
5.120000	0.263149	-0.100551	-0.363700	-0.093876	0.361911	-0.268035
5.125000	0.274619	-0.096993	-0.371611	-0.102552	0.373101	-0.270548
5.130000	0.282908	-0.093839	-0.376747	-0.109159	0.380852	-0.271693
5.135000	0.287887	-0.091307	-0.379194	-0.113495	0.385139	-0.271644
5.140000	0.289508	-0.090212	-0.379721	-0.115064	0.386380	-0.271316
5.145000	0.287850	-0.090854	-0.378703	-0.113736	0.384834	-0.271099
5.150000	0.283221	-0.092848	-0.376068	-0.109912	0.380641	-0.270729
5.155000	0.276537	-0.095427	-0.371964	-0.104564	0.374412	-0.269848
5.160000	0.269300	-0.097492	-0.366792	-0.099193	0.367247	-0.268054
5.165000	0.264796	-0.097327	-0.362123	-0.096689	0.361952	-0.265263
5.170000	0.270864	-0.090410	-0.361275	-0.104185	0.364965	-0.260780
5.175000	0.288160	-0.066088	-0.354248	-0.128213	0.370894	-0.242681
5.180000	0.302892	-0.002136	-0.305027	-0.173642	0.350982	-0.177341
5.185000	0.295877	0.126909	-0.168967	-0.244095	0.268378	-0.024282
5.190000	0.250377	0.331680	0.081303	-0.336051	0.097615	0.238435
5.195000	0.159767	0.593023	0.433256	-0.434624	-0.157899	0.592522
5.200000	0.038452	0.854847	0.816395	-0.515747	-0.449145	0.964892
5.205000	-0.083305	1.049929	1.133234	-0.558080	-0.702368	1.260449
5.210000	-0.176155	1.133134	1.309289	-0.552512	-0.857621	1.410133
5.215000	-0.223807	1.093360	1.317166	-0.502036	-0.889681	1.391717
5.220000	-0.221697	0.945318	1.167015	-0.417782	-0.801773	1.219555
5.225000	-0.171717	0.722274	0.893992	-0.317864	-0.615287	0.933151
5.230000	-0.087498	0.473926	0.561424	-0.223105	-0.374655	0.597759
5.235000	0.007914	0.248816	0.240902	-0.148223	-0.134516	0.282739
5.240000	0.093375	0.076391	-0.016983	-0.098014	0.063715	0.034299
5.245000	0.157066	-0.036384	-0.193451	-0.069676	0.202371	-0.132695
5.250000	0.196457	-0.098769	-0.295226	-0.056400	0.283873	-0.227473
5.255000	0.215160	-0.126612	-0.341772	-0.051123	0.321544	-0.270421
5.260000	0.219769	-0.134908	-0.354676	-0.048995	0.331656	-0.282661
5.265000	0.216361	-0.135388	-0.351749	-0.046750	0.327998	-0.281248
5.270000	0.209515	-0.135162	-0.344676	-0.042928	0.319962	-0.277035
5.275000	0.202393	-0.136055	-0.338448	-0.038300	0.312255	-0.273954
5.280000	0.196876	-0.137032	-0.333908	-0.034551	0.306448	-0.271897
5.285000	0.194414	-0.137532	-0.331946	-0.032841	0.303894	-0.271054
5.290000	0.195964	-0.136946	-0.332910	-0.034074	0.305346	-0.271272
5.295000	0.202083	-0.135017	-0.337100	-0.038720	0.311297	-0.272577
5.300000	0.212601	-0.132587	-0.345188	-0.046196	0.322040	-0.275844
5.305000	0.226080	-0.130241	-0.356321	-0.055333	0.336249	-0.280916
5.310000	0.240883	-0.127324	-0.368207	-0.065564	0.351659	-0.286095
5.315000	0.255678	-0.123309	-0.378987	-0.076423	0.366424	-0.290000
5.320000	0.269030	-0.119044	-0.388074	-0.086595	0.379379	-0.292785
5.325000	0.279645	-0.115465	-0.395110	-0.094789	0.389570	-0.294781
5.330000	0.286949	-0.112421	-0.399370	-0.100764	0.396246	-0.295482
5.335000	0.291048	-0.110025	-0.401073	-0.104513	0.399596	-0.295083
5.340000	0.291877	-0.109034	-0.400911	-0.105565	0.399981	-0.294417
5.345000	0.289532	-0.109679	-0.399212	-0.103838	0.397646	-0.293808
5.350000	0.284371	-0.111637	-0.396009	-0.099728	0.392817	-0.293089
5.355000	0.277483	-0.114239	-0.391722	-0.094249	0.386365	-0.292117
5.360000	0.270440	-0.116381	-0.386821	-0.088946	0.379470	-0.290524
5.365000	0.264379	-0.117599	-0.381979	-0.084743	0.373175	-0.288431
5.370000	0.259255	-0.118228	-0.377483	-0.081422	0.367621	-0.286199
5.375000	0.254344	-0.118333	-0.372677	-0.078526	0.362011	-0.283484
5.380000	0.249391	-0.117767	-0.367158	-0.075994	0.355965	-0.279971
5.385000	0.244800	-0.117018	-0.361819	-0.073775	0.350232	-0.276457
5.390000	0.241098	-0.116576	-0.357674	-0.071893	0.345701	-0.273808
5.395000	0.238421	-0.116210	-0.354631	-0.070559	0.342399	-0.271840
5.400000	0.236716	-0.115743	-0.352459	-0.069843	0.340160	-0.270317
5.405000	0.235758	-0.115307	-0.351066	-0.069542	0.338803	-0.269260
5.410000	0.235191	-0.114653	-0.349844	-0.069592	0.337770	-0.268178
5.415000	0.234801	-0.113674	-0.348475	-0.069933	0.336754	-0.266821
5.420000	0.234049	-0.112873	-0.346922	-0.069961	0.335423	-0.265462
5.425000	0.232016	-0.112155	-0.344171	-0.069201	0.332661	-0.263460
5.430000	0.228625	-0.110836	-0.339461	-0.068006	0.327984	-0.259979
5.435000	0.224711	-0.109460	-0.334171	-0.066540	0.322670	-0.256130
5.440000	0.221178	-0.108720	-0.329898	-0.064927	0.318164	-0.253236
5.445000	0.218161	-0.108455	-0.326616	-0.063339	0.314527	-0.251188
5.450000	0.214919	-0.108535	-0.323455	-0.061421	0.310830	-0.249409
5.455000	0.211011	-0.108907	-0.319918	-0.058949	0.306532	-0.247582
5.460000	0.206259	-0.109683	-0.315942	-0.055758	0.301492	-0.245734
5.465000	0.200585	-0.111626	-0.312211	-0.051361	0.296063	-0.244702
5.470000	0.194561	-0.114770	-0.309332	-0.046067	0.290922	-0.244855
5.475000	0.189062	-0.117482	-0.306544	-0.041327	0.286138	-0.244812
5.480000	0.185403	-0.118681	-0.304084	-0.038522	0.282605	-0.244083
5.485000	0.184999	-0.118401	-0.303400	-0.038450	0.281977	-0.243527
5.490000	0.188714	-0.116718	-0.305432	-0.041567	0.285295	-0.243729
5.495000	0.197020	-0.114028	-0.311048	-0.047916	0.293333	-0.245417
5.500000	0.209137	-0.111170	-0.320307	-0.056561	0.305674	-0.249113
5.505000	0.223441	-0.108438	-0.331879	-0.066397	0.320614	-0.254217
5.510000	0.238379	-0.105041	-0.343420	-0.076983	0.335902	-0.258919
5.515000	0.252510	-0.100901	-0.353411	-0.087531	0.349828	-0.262297
5.520000	0.264475	-0.097260	-0.361734	-0.096542	0.361542	-0.265000
5.525000	0.273350	-0.094392	-0.367741	-0.103322	0.370134	-0.266812
5.530000	0.278943	-0.091882	-0.370825	-0.108000	0.375143	-0.267144
5.535000	0.281323	-0.090299	-0.371622	-0.110288	0.376978	-0.266690
5.540000	0.280434	-0.090534	-0.370969	-0.109639	0.376088	-0.266449
5.545000	0.276428	-0.092262	-0.368690	-0.106328	0.372459	-0.266131
5.550000	0.270046	-0.094713	-0.364759	-0.101228	0.366504	-0.265276
5.555000	0.262794	-0.097135	-0.359929	-0.095643	0.359529	-0.263886
5.560000	0.256931	-0.098151	-0.355083	-0.091672	0.353346	-0.261675
5.565000	0.259131	-0.093900	-0.353032	-0.095396	0.353432	-0.258036
5.570000	0.273875	-0.076616	-0.350491	-0.113888	0.360478	-0.246590
5.575000	0.291448	-0.028061	-0.319509	-0.152067	0.352736	-0.200670
5.580000	0.293225	0.078530	-0.214695	-0.214633	0.293248	-0.078615
5.585000	0.261260	0.260031	-0.001229	-0.300967	0.151548	0.149419
5.590000	0.184292	0.507874	0.323582	-0.399622	-0.080419	0.480041
5.595000	0.069702	0.776612	0.706909	-0.488619	-0.367891	0.856511
5.600000	-0.055560	0.998891	1.054451	-0.544632	-0.640865	1.185497
5.605000	-0.160025	1.120136	1.280161	-0.554320	-0.831492	1.385812
5.610000	-0.222773	1.118522	1.341295	-0.517161	-0.903015	1.420176
5.615000	-0.236572	1.002124	1.238696	-0.441991	-0.851746	1.293737
5.620000	-0.200998	0.798218	0.999216	-0.344805	-0.692944	1.037749
5.625000	-0.125387	0.552144	0.677532	-0.246388	-0.463565	0.709954
5.630000	-0.030907	0.315642	0.346549	-0.164392	-0.217924	0.382316
5.635000	0.059535	0.125099	0.065564	-0.106598	-0.003481	0.110079
5.640000	0.130755	-0.006124	-0.136879	-0.071955	0.154519	-0.082563
5.645000	0.177540	-0.082877	-0.260417	-0.054654	0.252855	-0.198201
5.650000	0.202055	-0.119725	-0.321780	-0.047534	0.302437	-0.254903
5.655000	0.210472	-0.132846	-0.343318	-0.044817	0.319730	-0.274913
5.660000	0.209151	-0.135275	-0.344426	-0.042652	0.319607	-0.276956
5.665000	0.202971	-0.135226	-0.338197	-0.039113	0.312444	-0.273331
5.670000	0.195515	-0.135959	-0.331474	-0.034385	0.304257	-0.269873
5.675000	0.189038	-0.137011	-0.326048	-0.030038	0.297385	-0.267347
5.680000	0.185273	-0.137481	-0.322754	-0.027593	0.293309	-0.265716
5.685000	0.185475	-0.137054	-0.322529	-0.027956	0.293296	-0.265341
5.690000	0.190267	-0.135617	-0.325884	-0.031552	0.297999	-0.266448
5.695000	0.199708	-0.133297	-0.333005	-0.038342	0.307562	-0.269220
5.700000	0.212590	-0.130512	-0.343102	-0.047388	0.320829	-0.273441
5.705000	0.227169	-0.127365	-0.354534	-0.057622	0.335846	-0.278225
5.710000	0.241989	-0.123237	-0.365226	-0.068562	0.350576	-0.282014
5.715000	0.255757	-0.118578	-0.374335	-0.079200	0.363784	-0.284583
5.720000	0.267213	-0.114775	-0.381988	-0.088010	0.374816	-0.286806
5.725000	0.275546	-0.111831	-0.387377	-0.094521	0.382738	-0.288218
5.730000	0.280566	-0.109313	-0.389880	-0.098873	0.387082	-0.288209
5.735000	0.282271	-0.108019	-0.390289	-0.100605	0.388303	-0.287698
5.740000	0.280822	-0.108486	-0.389307	-0.099498	0.386899	-0.287401
5.745000	0.276477	-0.110203	-0.386680	-0.095999	0.382874	-0.286875
5.750000	0.269981	-0.112544	-0.382526	-0.090896	0.376725	-0.285829
5.755000	0.262732	-0.114985	-0.377717	-0.085302	0.369764	-0.284462
5.760000	0.256092	-0.116739	-0.372831	-0.080455	0.363108	-0.282653
5.765000	0.250626	-0.117491	-0.368117	-0.076866	0.357231	-0.280365
5.770000	0.245822	-0.117623	-0.363445	-0.074016	0.351760	-0.277745
5.775000	0.241190	-0.117326	-0.358516	-0.071513	0.346241	-0.274728
5.780000	0.236834	-0.116764	-0.353599	-0.069322	0.340887	-0.271564
5.785000	0.233148	-0.116424	-0.349572	-0.067391	0.336433	-0.269043
5.790000	0.230269	-0.116190	-0.346459	-0.065863	0.332974	-0.267111
5.795000	0.228248	-0.115510	-0.343758	-0.065090	0.330248	-0.265158
5.800000	0.227080	-0.114509	-0.341590	-0.064993	0.328322	-0.263329
5.805000	0.226559	-0.113677	-0.340236	-0.065172	0.327239	-0.262066
5.810000	0.226315	-0.112997	-0.339312	-0.065424	0.326565	-0.261141
5.815000	0.225776	-0.112339	-0.338115	-0.065492	0.325562	-0.260070
5.820000	0.224030	-0.111823	-0.335853	-0.064783	0.323248	-0.258466
5.825000	0.220806	-0.110864	-0.331670	-0.063475	0.318972	-0.255497
5.830000	0.216703	-0.109306	-0.326009	-0.062006	0.313335	-0.251329
5.835000	0.212613	-0.108079	-0.320692	-0.060353	0.307903	-0.247551
5.840000	0.209052	-0.107738	-0.316790	-0.058493	0.303595	-0.245102
5.845000	0.205546	-0.107893	-0.313439	-0.056380	0.299636	-0.243256
5.850000	0.201557	-0.108186	-0.309743	-0.053908	0.295199	-0.241291
5.855000	0.196951	-0.109015	-0.305967	-0.050770	0.290360	-0.239590
5.860000	0.191484	-0.110872	-0.302356	-0.046541	0.285119	-0.238577
5.865000	0.185430	-0.113596	-0.299026	-0.041474	0.279701	-0.238227
5.870000	0.179669	-0.116326	-0.295995	-0.036571	0.274625	-0.238053
5.875000	0.175415	-0.118092	-0.293507	-0.033095	0.270732	-0.237637
5.880000	0.174096	-0.118341	-0.292437	-0.032190	0.269353	-0.237163
5.885000	0.176801	-0.117022	-0.293823	-0.034513	0.271715	-0.237202
5.890000	0.184175	-0.114823	-0.298998	-0.040040	0.278960	-0.238920
5.895000	0.195646	-0.112267	-0.307912	-0.048139	0.290729	-0.242590
5.900000	0.209684	-0.109654	-0.319338	-0.057752	0.305431	-0.247678
5.905000	0.224758	-0.106465	-0.331223	-0.068297	0.320996	-0.252699
5.910000	0.239384	-0.102216	-0.341600	-0.079194	0.335431	-0.256237
5.915000	0.252049	-0.097952	-0.350001	-0.088968	0.347594	-0.258626
5.920000	0.261681	-0.094800	-0.356481	-0.096349	0.356896	-0.260547
5.925000	0.267972	-0.092300	-0.360272	-0.101424	0.362717	-0.261293
5.930000	0.271040	-0.090284	-0.361324	-0.104359	0.365095	-0.260736
5.935000	0.270887	-0.089758	-0.360644	-0.104575	0.364614	-0.260040
5.940000	0.267692	-0.091115	-0.358807	-0.101946	0.361709	-0.259763
5.945000	0.261936	-0.093560	-0.355496	-0.097212	0.356474	-0.259263
5.950000	0.254848	-0.096190	-0.351038	-0.091601	0.349808	-0.258207
5.955000	0.248246	-0.098115	-0.346361	-0.086678	0.343297	-0.256618
5.960000	0.247592	-0.096124	-0.343716	-0.087450	0.341392	-0.253941
5.965000	0.259391	-0.083470	-0.342861	-0.101568	0.347710	-0.246142
5.970000	0.277600	-0.044911	-0.322510	-0.134343	0.346474	-0.212131
5.975000	0.284643	0.045667	-0.238976	-0.190704	0.302311	-0.111607
5.980000	0.261850	0.209128	-0.052723	-0.271919	0.181619	0.090300
5.985000	0.195520	0.443928	0.248409	-0.369185	-0.030535	0.399721
5.990000	0.087839	0.713500	0.625661	-0.462653	-0.310511	0.773165
5.995000	-0.037944	0.952903	0.990847	-0.528252	-0.593972	1.122224
6.000000	-0.149895	1.101991	1.251886	-0.549693	-0.809318	1.359011
6.005000	-0.223564	1.130105	1.353668	-0.523391	-0.910615	1.434006
6.010000	-0.249040	1.039275	1.288316	-0.456242	-0.887592	1.343835
6.015000	-0.224775	0.852918	1.077693	-0.362659	-0.751980	1.114639
6.020000	-0.157099	0.612230	0.769329	-0.262770	-0.534873	0.797643
6.025000	-0.064896	0.369321	0.434217	-0.175760	-0.288163	0.463923
6.030000	0.028165	0.165750	0.137585	-0.111957	-0.063174	0.175131
6.035000	0.104642	0.020217	-0.084426	-0.072087	0.109158	-0.037071
6.040000	0.157229	-0.068734	-0.225963	-0.051093	0.221236	-0.170143
6.045000	0.186562	-0.113755	-0.300317	-0.042035	0.281100	-0.239065
6.050000	0.198073	-0.130888	-0.328962	-0.038789	0.304283	-0.265494
6.055000	0.198380	-0.134563	-0.332943	-0.036845	0.306760	-0.269915
6.060000	0.192755	-0.134349	-0.327104	-0.033721	0.300141	-0.266420
6.065000	0.185032	-0.134424	-0.319456	-0.029219	0.291266	-0.262048
6.070000	0.177815	-0.135273	-0.313088	-0.024562	0.283423	-0.258861
6.075000	0.173033	-0.136096	-0.309129	-0.021325	0.278376	-0.257051
6.080000	0.172058	-0.136065	-0.308123	-0.020781	0.277233	-0.256452
6.085000	0.175606	-0.134831	-0.310437	-0.023542	0.280617	-0.257076
6.090000	0.183986	-0.132736	-0.316721	-0.029589	0.289083	-0.259494
6.095000	0.196241	-0.130289	-0.326531	-0.038078	0.301823	-0.263745
6.100000	0.210602	-0.127804	-0.338405	-0.047803	0.316969	-0.269166
6.105000	0.225546	-0.124770	-0.350316	-0.058183	0.332474	-0.274291
6.110000	0.239732	-0.120742	-0.360475	-0.068699	0.346530	-0.277830
6.115000	0.251850	-0.116645	-0.368495	-0.078061	0.358156	-0.280095
6.120000	0.261020	-0.113406	-0.374427	-0.085225	0.366875	-0.281650
6.125000	0.267021	-0.110840	-0.377861	-0.090171	0.372323	-0.282152
6.130000	0.269762	-0.108957	-0.378718	-0.092841	0.374400	-0.281559
6.135000	0.269155	-0.108707	-0.377863	-0.092635	0.373556	-0.280921
6.140000	0.265435	-0.110180	-0.375615	-0.089636	0.370110	-0.280474
6.145000	0.259288	-0.112399	-0.371687	-0.084807	0.364294	-0.279487
6.150000	0.252149	-0.114671	-0.366820	-0.079373	0.357362	-0.277989
6.155000	0.245460	-0.116352	-0.361811	-0.074540	0.350608	-0.276068
6.160000	0.239857	-0.117022	-0.356879	-0.070919	0.344526	-0.273607
6.165000	0.234821	-0.117062	-0.351883	-0.067988	0.338733	-0.270746
6.170000	0.229796	-0.116938	-0.346734	-0.065159	0.332860	-0.267701
6.175000	0.224964	-0.116589	-0.341554	-0.062570	0.327079	-0.264509
6.180000	0.220718	-0.116023	-0.336741	-0.060445	0.321849	-0.261403
6.185000	0.217370	-0.115580	-0.332950	-0.058768	0.317727	-0.258959
6.190000	0.215130	-0.115232	-0.330362	-0.057676	0.314940	-0.257264
6.195000	0.213948	-0.114639	-0.328586	-0.057336	0.313232	-0.255896
6.200000	0.213434	-0.113916	-0.327350	-0.057457	0.312222	-0.254765
6.205000	0.213167	-0.113314	-0.326481	-0.057650	0.311566	-0.253916
6.210000	0.212643	-0.112749	-0.325392	-0.057674	0.310635	-0.252961
6.215000	0.210963	-0.112241	-0.323204	-0.056997	0.308402	-0.251404
6.220000	0.207825	-0.111420	-0.319245	-0.055660	0.304304	-0.248644
6.225000	0.203854	-0.109880	-0.313734	-0.054256	0.298829	-0.244574
6.230000	0.199925	-0.108246	-0.308171	-0.052931	0.293349	-0.240419
6.235000	0.196525	-0.107395	-0.303919	-0.051459	0.288931	-0.237472
6.240000	0.193211	-0.107526	-0.300736	-0.049470	0.285180	-0.235710
6.245000	0.189342	-0.108050	-0.297392	-0.046934	0.281016	-0.234082
6.250000	0.184780	-0.108853	-0.293633	-0.043837	0.276212	-0.232375
6.255000	0.179268	-0.110673	-0.289941	-0.039603	0.270898	-0.231295
6.260000	0.173059	-0.113567	-0.286625	-0.034348	0.265398	-0.231051
6.265000	0.167009	-0.116472	-0.283481	-0.029178	0.260090	-0.230913
6.270000	0.162246	-0.118353	-0.280599	-0.025341	0.255677	-0.230335
6.275000	0.160131	-0.118954	-0.279085	-0.023774	0.253582	-0.229808
6.280000	0.161716	-0.117937	-0.279653	-0.025276	0.254824	-0.229548
6.285000	0.167817	-0.115740	-0.283558	-0.030067	0.260601	-0.230535
6.290000	0.178419	-0.113220	-0.291638	-0.037643	0.271387	-0.233745
6.295000	0.192073	-0.110489	-0.302562	-0.047102	0.285577	-0.238475
6.300000	0.207033	-0.107129	-0.314162	-0.057679	0.300912	-0.243232
6.305000	0.221813	-0.103063	-0.324876	-0.068560	0.315631	-0.247071
6.310000	0.234980	-0.098853	-0.333833	-0.078592	0.328404	-0.249811
6.315000	0.245350	-0.095318	-0.340668	-0.086621	0.338338	-0.251717
6.320000	0.252466	-0.092672	-0.345138	-0.092257	0.345027	-0.252769
6.325000	0.256437	-0.090720	-0.347156	-0.095677	0.348484	-0.252808
6.330000	0.257176	-0.089985	-0.347161	-0.096528	0.348913	-0.252386
6.335000	0.254825	-0.091147	-0.345972	-0.094500	0.346870	-0.252370
6.340000	0.249703	-0.093588	-0.343291	-0.090133	0.342365	-0.252232
6.345000	0.242797	-0.096094	-0.338892	-0.084699	0.335838	-0.251139
6.350000	0.235739	-0.097944	-0.333682	-0.079556	0.328755	-0.249199
6.355000	0.232813	-0.097085	-0.329898	-0.078363	0.324881	-0.246518
6.360000	0.241565	-0.087680	-0.329246	-0.088846	0.329558	-0.240712
6.365000	0.259551	-0.057037	-0.316589	-0.116921	0.332634	-0.215713
6.370000	0.271030	0.018954	-0.252076	-0.167422	0.302016	-0.134593
6.375000	0.256972	0.164332	-0.092640	-0.243240	0.201848	0.041391
6.380000	0.201735	0.384542	0.182808	-0.338487	0.010928	0.327559
6.385000	0.102562	0.651608	0.549047	-0.435420	-0.257778	0.693198
6.390000	-0.021691	0.904154	0.925845	-0.509490	-0.547060	1.056550
6.395000	-0.139575	1.078254	1.217829	-0.541946	-0.783697	1.325643
6.400000	-0.223762	1.135459	1.359221	-0.526368	-0.913936	1.440304
6.405000	-0.261014	1.070750	1.331764	-0.467501	-0.919590	1.387091
6.410000	-0.248332	0.903348	1.151679	-0.378174	-0.808296	1.186470
6.415000	-0.189541	0.670522	0.860062	-0.277694	-0.605989	0.883683
6.420000	-0.100909	0.423332	0.524241	-0.186151	-0.360930	0.547082
6.425000	-0.006155	0.207571	0.213726	-0.116287	-0.126949	0.243236
6.430000	0.075155	0.047988	-0.027166	-0.071097	0.059075	0.012022
6.435000	0.133398	-0.052972	-0.186370	-0.046434	0.184618	-0.138184
6.440000	0.167648	-0.106741	-0.274389	-0.035164	0.255210	-0.220045
6.445000	0.182587	-0.129150	-0.311738	-0.030852	0.285399	-0.254547
6.450000	0.184906	-0.134978	-0.319884	-0.028826	0.291440	-0.262615
6.455000	0.180241	-0.135173	-0.315415	-0.026020	0.286167	-0.260147
6.460000	0.172785	-0.135153	-0.307938	-0.021727	0.277546	-0.255819
6.465000	0.165377	-0.135829	-0.301206	-0.017059	0.269382	-0.252322
6.470000	0.159994	-0.136499	-0.296493	-0.013565	0.263553	-0.249988
6.475000	0.158143	-0.136501	-0.294644	-0.012495	0.261417	-0.248922
6.480000	0.160615	-0.135257	-0.295872	-0.014641	0.263553	-0.248912
6.485000	0.167843	-0.133181	-0.301024	-0.020012	0.270700	-0.250688
6.490000	0.179306	-0.130886	-0.310192	-0.027956	0.282612	-0.254656
6.495000	0.193370	-0.128286	-0.321656	-0.037577	0.297351	-0.259774
6.500000	0.208390	-0.124900	-0.333291	-0.048203	0.312740	-0.264537
6.505000	0.223000	-0.120797	-0.343797	-0.059007	0.327240	-0.268233
6.510000	0.235683	-0.116792	-0.352475	-0.068642	0.339573	-0.270931
6.515000	0.245325	-0.113592	-0.358918	-0.076056	0.348860	-0.272804
6.520000	0.251643	-0.111090	-0.362733	-0.081149	0.354710	-0.273561
6.525000	0.254754	-0.109112	-0.363866	-0.084087	0.357160	-0.273074
6.530000	0.254657	-0.108342	-0.362999	-0.084475	0.356603	-0.272129
6.535000	0.251610	-0.109333	-0.360944	-0.082144	0.353658	-0.271514
6.540000	0.246043	-0.111614	-0.357657	-0.077613	0.348546	-0.270933
6.545000	0.239052	-0.114041	-0.353093	-0.072175	0.341875	-0.269700
6.550000	0.232154	-0.115917	-0.348071	-0.067109	0.334993	-0.267884
6.555000	0.226336	-0.117006	-0.343342	-0.063121	0.328903	-0.265782
6.560000	0.221304	-0.117236	-0.338540	-0.060084	0.323226	-0.263142
6.565000	0.216322	-0.116886	-0.333209	-0.057409	0.317272	-0.259863
6.570000	0.211366	-0.116530	-0.327896	-0.054754	0.311343	-0.256589
6.575000	0.206807	-0.116306	-0.323114	-0.052251	0.305950	-0.253699
6.580000	0.203046	-0.115959	-0.319005	-0.050280	0.301407	-0.251127
6.585000	0.200227	-0.115602	-0.315828	-0.048858	0.297944	-0.249086
6.590000	0.198273	-0.115141	-0.313414	-0.047996	0.295422	-0.247427
6.595000	0.197060	-0.114378	-0.311438	-0.047737	0.293582	-0.245845
6.600000	0.196430	-0.113593	-0.310023	-0.047826	0.292401	-0.244575
6.605000	0.196108	-0.113219	-0.309327	-0.047856	0.291813	-0.243957
6.610000	0.195289	-0.112998	-0.308288	-0.047511	0.290740	-0.243229
6.615000	0.193131	-0.112249	-0.305380	-0.046697	0.287815	-0.241118
6.620000	0.189693	-0.110867	-0.300560	-0.045510	0.283048	-0.237538
6.625000	0.185814	-0.109425	-0.295239	-0.044103	0.277736	-0.233633
6.630000	0.182360	-0.108329	-0.290689	-0.042742	0.273115	-0.230373
6.635000	0.179274	-0.107910	-0.287185	-0.041202	0.269310	-0.228108
6.640000	0.175788	-0.107997	-0.283785	-0.039139	0.265334	-0.226195
6.645000	0.171522	-0.108235	-0.279757	-0.036538	0.260546	-0.224007
6.650000	0.166335	-0.109271	-0.275606	-0.032946	0.255154	-0.222208
6.655000	0.160304	-0.111862	-0.272166	-0.027968	0.249687	-0.221719
6.660000	0.154086	-0.115236	-0.269322	-0.022430	0.244454	-0.222024
6.665000	0.148716	-0.117725	-0.266441	-0.017893	0.239691	-0.221798
6.670000	0.145626	-0.118913	-0.264540	-0.015423	0.236809	-0.221387
6.675000	0.146075	-0.118554	-0.264629	-0.015889	0.237120	-0.221231
6.680000	0.150822	-0.116554	-0.267377	-0.019785	0.241447	-0.221663
6.685000	0.160142	-0.113865	-0.274007	-0.026718	0.250656	-0.223938
6.690000	0.172852	-0.111356	-0.284208	-0.035504	0.263883	-0.228379
6.695000	0.187261	-0.108579	-0.295840	-0.045427	0.278919	-0.233491
6.700000	0.201922	-0.104906	-0.306828	-0.056012	0.293727	-0.237714
6.705000	0.215464	-0.100674	-0.316138	-0.066274	0.306920	-0.240646
6.710000	0.226619	-0.096748	-0.323367	-0.074981	0.317534	-0.242553
6.715000	0.234684	-0.093377	-0.328061	-0.081584	0.324901	-0.243317
6.720000	0.239590	-0.090800	-0.330391	-0.085904	0.329079	-0.243175
6.725000	0.241216	-0.089651	-0.330866	-0.087506	0.330292	-0.242785
6.730000	0.239576	-0.090185	-0.329761	-0.086251	0.328707	-0.242456
6.735000	0.235019	-0.092180	-0.327199	-0.082468	0.324596	-0.242128
6.740000	0.228399	-0.094831	-0.323230	-0.077116	0.318483	-0.241368
6.745000	0.221192	-0.097066	-0.318257	-0.071664	0.311451	-0.239787
6.750000	0.216209	-0.097505	-0.313714	-0.068534	0.305951	-0.237417
6.755000	0.220886	-0.091792	-0.312678	-0.074532	0.308053	-0.233521
6.760000	0.237174	-0.069981	-0.307156	-0.096529	0.314269	-0.217740
6.765000	0.252693	-0.011219	-0.263912	-0.139415	0.298262	-0.158846
6.770000	0.248547	0.110361	-0.138186	-0.207216	0.223281	-0.016065
6.775000	0.207484	0.307602	0.100118	-0.297385	0.061988	0.235397
6.780000	0.121041	0.564989	0.443948	-0.396079	-0.186430	0.582509
6.785000	0.001331	0.829599	0.828268	-0.479737	-0.477432	0.957169
6.790000	-0.122177	1.034072	1.156249	-0.526482	-0.738099	1.264581
6.795000	-0.219177	1.130238	1.349415	-0.526001	-0.905627	1.431628
6.800000	-0.271870	1.103185	1.375055	-0.479960	-0.950852	1.430812
6.805000	-0.275058	0.965411	1.240469	-0.398575	-0.874989	1.273565
6.810000	-0.229828	0.748444	0.978271	-0.299423	-0.697496	0.996919
6.815000	-0.148269	0.500573	0.648842	-0.203403	-0.460212	0.663615
6.820000	-0.052905	0.271405	0.324310	-0.126151	-0.217785	0.343936
6.825000	0.034307	0.092909	0.058602	-0.073449	-0.014027	0.087475
6.830000	0.100316	-0.025836	-0.126152	-0.043001	0.130751	-0.087751
6.835000	0.141803	-0.093020	-0.234823	-0.028165	0.217445	-0.189281
6.840000	0.162117	-0.124100	-0.286217	-0.021950	0.258846	-0.236896
6.845000	0.167804	-0.134119	-0.301923	-0.019448	0.271197	-0.251749
6.850000	0.165001	-0.135270	-0.300271	-0.017165	0.268624	-0.251460
6.855000	0.158330	-0.135094	-0.293424	-0.013415	0.260820	-0.247405
6.860000	0.150984	-0.135681	-0.286665	-0.008835	0.252677	-0.243841
6.865000	0.144994	-0.136148	-0.281142	-0.005108	0.246030	-0.240922
6.870000	0.142029	-0.136256	-0.278285	-0.003333	0.242668	-0.239335
6.875000	0.143162	-0.135631	-0.278793	-0.004348	0.243616	-0.239268
6.880000	0.148915	-0.134018	-0.282933	-0.008601	0.249328	-0.240727
6.885000	0.159167	-0.132039	-0.291206	-0.015662	0.260023	-0.244361
6.890000	0.172530	-0.130011	-0.302541	-0.024548	0.274282	-0.249734
6.895000	0.187238	-0.127200	-0.314438	-0.034663	0.289642	-0.254979
6.900000	0.201956	-0.123135	-0.325091	-0.045507	0.304290	-0.258783
6.905000	0.215345	-0.118792	-0.334137	-0.055745	0.317243	-0.261499
6.910000	0.226128	-0.115193	-0.341320	-0.064048	0.327616	-0.263568
6.915000	0.233703	-0.112197	-0.345900	-0.070151	0.334633	-0.264482
6.920000	0.238098	-0.109792	-0.347890	-0.074077	0.338320	-0.264243
6.925000	0.239264	-0.108581	-0.347845	-0.075450	0.338967	-0.263517
6.930000	0.237290	-0.109092	-0.346382	-0.074015	0.336983	-0.262968
6.935000	0.232462	-0.111172	-0.343634	-0.070027	0.332609	-0.262582
6.940000	0.225641	-0.113698	-0.339338	-0.064630	0.326190	-0.261560
6.945000	0.218323	-0.115545	-0.333868	-0.059339	0.318807	-0.259468
6.950000	0.211857	-0.116630	-0.328487	-0.054980	0.311968	-0.256989
6.955000	0.206483	-0.117210	-0.323693	-0.051542	0.306097	-0.254555
6.960000	0.201468	-0.117194	-0.318662	-0.048656	0.300297	-0.251641
6.965000	0.196521	-0.116728	-0.313249	-0.046068	0.294316	-0.248247
6.970000	0.191923	-0.116423	-0.308346	-0.043590	0.288830	-0.245240
6.975000	0.188000	-0.116413	-0.304414	-0.041331	0.284295	-0.242964
6.980000	0.184907	-0.116338	-0.301245	-0.039588	0.280680	-0.241092
6.985000	0.182797	-0.116131	-0.298928	-0.038490	0.278124	-0.239634
6.990000	0.181612	-0.115728	-0.297339	-0.038038	0.276522	-0.238484
6.995000	0.181057	-0.114935	-0.295992	-0.038176	0.275424	-0.237248
7.000000	0.180759	-0.114026	-0.294785	-0.038529	0.274556	-0.236027
7.005000	0.180006	-0.113322	-0.293328	-0.038500	0.273279	-0.234779
7.010000	0.177898	-0.112545	-0.290442	-0.037732	0.270396	-0.232665
7.015000	0.174455	-0.111325	-0.285780	-0.036448	0.265717	-0.229269
7.020000	0.170453	-0.110242	-0.280695	-0.034763	0.260470	-0.225707
7.025000	0.166717	-0.109719	-0.276436	-0.032907	0.255854	-0.222947
7.030000	0.163403	-0.109581	-0.272984	-0.031074	0.251948	-0.220874
7.035000	0.159871	-0.109769	-0.269640	-0.028926	0.247978	-0.219052
7.040000	0.155747	-0.110195	-0.265942	-0.026299	0.243462	-0.217163
7.045000	0.150821	-0.110886	-0.261707	-0.023057	0.238173	-0.215116
7.050000	0.144975	-0.112583	-0.257559	-0.018702	0.232403	-0.213701
7.055000	0.138756	-0.115372	-0.254128	-0.013501	0.226832	-0.213331
7.060000	0.133102	-0.117805	-0.250907	-0.008831	0.221707	-0.212876
7.065000	0.129353	-0.119027	-0.248380	-0.005962	0.218084	-0.212122
7.070000	0.128940	-0.119047	-0.247986	-0.005712	0.217618	-0.211907
7.075000	0.132639	-0.117701	-0.250340	-0.008625	0.221113	-0.212489
7.080000	0.140808	-0.115277	-0.256085	-0.014740	0.229146	-0.214406
7.085000	0.152750	-0.112640	-0.265390	-0.023157	0.241413	-0.218256
7.090000	0.166927	-0.110032	-0.276958	-0.032848	0.256277	-0.223429
7.095000	0.181765	-0.106461	-0.288226	-0.043477	0.271350	-0.227873
7.100000	0.195827	-0.101813	-0.297640	-0.054279	0.284903	-0.230624
7.105000	0.207725	-0.097635	-0.305360	-0.063560	0.296230	-0.232670
7.110000	0.216545	-0.094592	-0.311137	-0.070409	0.304657	-0.234248
7.115000	0.222161	-0.092369	-0.314529	-0.074935	0.309858	-0.234923
7.120000	0.224626	-0.091183	-0.315809	-0.077044	0.312020	-0.234977
7.125000	0.223826	-0.091361	-0.315187	-0.076479	0.311199	-0.234721
7.130000	0.219934	-0.092758	-0.312692	-0.073425	0.307512	-0.234087
7.135000	0.213592	-0.095097	-0.308689	-0.068413	0.301539	-0.233126
7.140000	0.206211	-0.097591	-0.303803	-0.062712	0.294457	-0.231745
7.145000	0.200020	-0.098708	-0.298728	-0.058493	0.287952	-0.229460
7.150000	0.201658	-0.094811	-0.296468	-0.061688	0.287593	-0.225905
7.155000	0.215937	-0.078193	-0.294130	-0.079527	0.294487	-0.214960
7.160000	0.233540	-0.030805	-0.264345	-0.117049	0.287454	-0.170405
7.165000	0.235893	0.073805	-0.162088	-0.178804	0.229774	-0.050971
7.170000	0.204962	0.253086	0.048125	-0.264454	0.090550	0.173904
7.175000	0.129173	0.499691	0.370518	-0.363074	-0.139340	0.502415
7.180000	0.015260	0.768973	0.753712	-0.452777	-0.426345	0.879122
7.185000	-0.110230	0.993538	1.103767	-0.509978	-0.700901	1.210879
7.190000	-0.215976	1.118283	1.334259	-0.520947	-0.895028	1.415975
7.195000	-0.280574	1.120396	1.400970	-0.484871	-0.970839	1.455710
7.200000	-0.296189	1.006990	1.303179	-0.410381	-0.923395	1.333776
7.205000	-0.262096	0.804748	1.066844	-0.313300	-0.767263	1.080563
7.210000	-0.187331	0.558871	0.746202	-0.214509	-0.538975	0.753484
7.215000	-0.092941	0.321311	0.414253	-0.131849	-0.292828	0.424678
7.220000	-0.002030	0.129062	0.131092	-0.073342	-0.076859	0.150200
7.225000	0.069965	-0.003780	-0.073745	-0.038212	0.082971	-0.044759
7.230000	0.117499	-0.081778	-0.199277	-0.020624	0.182891	-0.162267
7.235000	0.142397	-0.119574	-0.261972	-0.013177	0.233463	-0.220286
7.240000	0.150820	-0.133201	-0.284021	-0.010172	0.251055	-0.240883
7.245000	0.149357	-0.135539	-0.284895	-0.007978	0.250715	-0.242738
7.250000	0.143043	-0.135135	-0.278178	-0.004565	0.243192	-0.238626
7.255000	0.135488	-0.135586	-0.271075	0.000057	0.234729	-0.234786
7.260000	0.128945	-0.136488	-0.265432	0.004355	0.227694	-0.232049
7.265000	0.125056	-0.136981	-0.262037	0.006885	0.223489	-0.230373
7.270000	0.124992	-0.136835	-0.261827	0.006838	0.223330	-0.230168
7.275000	0.129405	-0.135734	-0.265139	0.003654	0.227790	-0.231444
7.280000	0.138495	-0.133684	-0.272179	-0.002777	0.237103	-0.234325
7.285000	0.151135	-0.131254	-0.282389	-0.011478	0.250295	-0.238817
7.290000	0.165577	-0.128425	-0.294002	-0.021450	0.265338	-0.243888
7.295000	0.180334	-0.124585	-0.304918	-0.032187	0.280160	-0.247973
7.300000	0.194085	-0.120224	-0.314309	-0.042644	0.293522	-0.250878
7.305000	0.205537	-0.116513	-0.322049	-0.051398	0.304602	-0.253204
7.310000	0.213848	-0.113457	-0.327305	-0.057961	0.312435	-0.254474
7.315000	0.218916	-0.110842	-0.329757	-0.062397	0.316777	-0.254380
7.320000	0.220764	-0.109416	-0.330179	-0.064287	0.318087	-0.253800
7.325000	0.219467	-0.109707	-0.329174	-0.063370	0.316758	-0.253388
7.330000	0.215282	-0.111284	-0.326566	-0.060043	0.312835	-0.252792
7.335000	0.208928	-0.113558	-0.322486	-0.055062	0.306812	-0.251750
7.340000	0.201783	-0.115768	-0.317552	-0.049661	0.299838	-0.250177
7.345000	0.195276	-0.117148	-0.312423	-0.045107	0.293120	-0.248013
7.350000	0.189997	-0.117738	-0.307735	-0.041718	0.287365	-0.245647
7.355000	0.185197	-0.117805	-0.303002	-0.038908	0.281862	-0.242953
7.360000	0.180250	-0.117367	-0.297617	-0.036305	0.275896	-0.239591
7.365000	0.175339	-0.116878	-0.292218	-0.033752	0.269944	-0.236192
7.370000	0.170999	-0.116782	-0.287781	-0.031303	0.264877	-0.233574
7.375000	0.167617	-0.116716	-0.284333	-0.029387	0.260933	-0.231546
7.380000	0.165471	-0.116151	-0.281622	-0.028475	0.258129	-0.229654
7.385000	0.164464	-0.115359	-0.279823	-0.028351	0.256510	-0.228159
7.390000	0.164052	-0.114646	-0.278698	-0.028525	0.255622	-0.227098
7.395000	0.163762	-0.113850	-0.277612	-0.028816	0.254827	-0.226011
7.400000	0.163096	-0.113205	-0.276301	-0.028804	0.253686	-0.224882
7.405000	0.161191	-0.112835	-0.274026	-0.027918	0.251273	-0.223354
7.410000	0.157778	-0.111929	-0.269707	-0.026471	0.246808	-0.220337
7.415000	0.153578	-0.110437	-0.264015	-0.024907	0.241097	-0.216190
7.420000	0.149550	-0.109413	-0.258963	-0.023173	0.235855	-0.212682
7.425000	0.146094	-0.109277	-0.255371	-0.021257	0.231786	-0.210529
7.430000	0.142565	-0.109552	-0.252117	-0.019060	0.227869	-0.208810
7.435000	0.138418	-0.110071	-0.248489	-0.016366	0.223381	-0.207015
7.440000	0.133615	-0.111057	-0.244672	-0.013024	0.218404	-0.205380
7.445000	0.127990	-0.112793	-0.240783	-0.008774	0.212911	-0.204137
7.450000	0.121853	-0.115337	-0.237190	-0.003762	0.207294	-0.203532
7.455000	0.115993	-0.117913	-0.233906	0.001108	0.202014	-0.203122
7.460000	0.111585	-0.119297	-0.230882	0.004452	0.197723	-0.202176
7.465000	0.110119	-0.119113	-0.229232	0.005193	0.195924	-0.201117
7.470000	0.112641	-0.117502	-0.230143	0.002806	0.197907	-0.200713
7.475000	0.119780	-0.114925	-0.234705	-0.002803	0.204662	-0.201859
7.480000	0.131075	-0.112114	-0.243190	-0.010947	0.216082	-0.205135
7.485000	0.144954	-0.109572	-0.254526	-0.020428	0.230640	-0.210212
7.490000	0.159840	-0.106712	-0.266552	-0.030673	0.246177	-0.215504
7.495000	0.174349	-0.102834	-0.277183	-0.041289	0.260692	-0.219403
7.500000	0.187035	-0.098765	-0.285800	-0.050962	0.272991	-0.222029
7.505000	0.196788	-0.095464	-0.292252	-0.058500	0.282348	-0.223848
7.510000	0.203281	-0.092605	-0.295886	-0.063899	0.288194	-0.224296
7.515000	0.206622	-0.090366	-0.296988	-0.067121	0.290759	-0.223638
7.520000	0.206712	-0.089895	-0.296607	-0.067445	0.290591	-0.223147
7.525000	0.203633	-0.091275	-0.294908	-0.064870	0.287833	-0.222963
7.530000	0.197764	-0.093664	-0.291428	-0.060102	0.282435	-0.222333
7.535000	0.190418	-0.096279	-0.286697	-0.054351	0.275462	-0.221111
7.540000	0.183502	-0.098046	-0.281549	-0.049338	0.268497	-0.219159
7.545000	0.182444	-0.095959	-0.278403	-0.049932	0.266070	-0.216138
7.550000	0.193931	-0.083849	-0.277780	-0.063555	0.272342	-0.208787
7.555000	0.212189	-0.046652	-0.258841	-0.095573	0.271949	-0.176377
7.560000	0.219797	0.041976	-0.177821	-0.151135	0.229565	-0.078430
7.565000	0.198032	0.203628	0.005597	-0.231898	0.111102	0.120796
7.570000	0.132896	0.437558	0.304662	-0.329352	-0.099169	0.428521
7.575000	0.025990	0.707633	0.681643	-0.423557	-0.378541	0.802099
7.580000	-0.099788	0.948879	1.048667	-0.490223	-0.663060	1.153283
7.585000	-0.212421	1.100534	1.312955	-0.512752	-0.880676	1.393428
7.590000	-0.287226	1.131434	1.418661	-0.487404	-0.984894	1.472297
7.595000	-0.313989	1.043169	1.357158	-0.420992	-0.964837	1.385829
7.600000	-0.290966	0.858466	1.149432	-0.327646	-0.831614	1.159260
7.605000	-0.224246	0.618066	0.842312	-0.227372	-0.615777	0.843149
7.610000	-0.132559	0.374320	0.506879	-0.139581	-0.369180	0.508760
7.615000	-0.039515	0.169327	0.208842	-0.074947	-0.143389	0.218336
7.620000	0.037321	0.022175	-0.015146	-0.034349	0.030292	0.004058
7.625000	0.090358	-0.068138	-0.158497	-0.012829	0.143676	-0.130848
7.630000	0.120068	-0.114102	-0.234170	-0.003445	0.204520	-0.201075
7.635000	0.131922	-0.131930	-0.263852	0.000004	0.228500	-0.228504
7.640000	0.132570	-0.135996	-0.268565	0.001978	0.231595	-0.233573
7.645000	0.127212	-0.135850	-0.263062	0.004987	0.225324	-0.230312
7.650000	0.119726	-0.135938	-0.255663	0.009360	0.216731	-0.226091
7.655000	0.112780	-0.136759	-0.249539	0.013844	0.209185	-0.223029
7.660000	0.108173	-0.137336	-0.245510	0.016837	0.204199	-0.221036
7.665000	0.107198	-0.137136	-0.244334	0.017284	0.202957	-0.220241
7.670000	0.110568	-0.136095	-0.246663	0.014738	0.206248	-0.220985
7.675000	0.118608	-0.134313	-0.252921	0.009068	0.214502	-0.223570
7.680000	0.130501	-0.131893	-0.262394	0.000803	0.226838	-0.227641
7.685000	0.144622	-0.129155	-0.273776	-0.008930	0.241562	-0.232632
7.690000	0.159498	-0.125854	-0.285352	-0.019425	0.256835	-0.237410
7.695000	0.173744	-0.121630	-0.295375	-0.030088	0.270846	-0.240758
7.700000	0.185932	-0.117481	-0.303413	-0.039520	0.282523	-0.243003
7.705000	0.195067	-0.114206	-0.309273	-0.046685	0.291181	-0.244496
7.710000	0.200885	-0.111342	-0.312227	-0.051698	0.296245	-0.244547
7.715000	0.203377	-0.109262	-0.312639	-0.054337	0.297922	-0.243585
7.720000	0.202562	-0.109054	-0.311616	-0.053987	0.296860	-0.242873
7.725000	0.198731	-0.110558	-0.309288	-0.050907	0.293305	-0.242398
7.730000	0.192460	-0.112862	-0.305321	-0.045956	0.287394	-0.241438
7.735000	0.185126	-0.115320	-0.300446	-0.040303	0.280345	-0.240042
7.740000	0.178277	-0.117309	-0.295587	-0.035200	0.273585	-0.238385
7.745000	0.172654	-0.118300	-0.290954	-0.031382	0.267664	-0.236282
7.750000	0.167732	-0.118487	-0.286218	-0.028432	0.262088	-0.233656
7.755000	0.162805	-0.118285	-0.281090	-0.025703	0.256283	-0.230579
7.760000	0.157886	-0.117711	-0.275597	-0.023195	0.250271	-0.227076
7.765000	0.153497	-0.117060	-0.270556	-0.021037	0.244827	-0.223790
7.770000	0.150083	-0.116714	-0.266796	-0.019265	0.240685	-0.221420
7.775000	0.147881	-0.116309	-0.264190	-0.018228	0.237909	-0.219681
7.780000	0.146831	-0.115628	-0.262458	-0.018015	0.236303	-0.218288
7.785000	0.146379	-0.115057	-0.261436	-0.018083	0.235452	-0.217369
7.790000	0.145947	-0.114629	-0.260575	-0.018081	0.234705	-0.216624
7.795000	0.145129	-0.114127	-0.259255	-0.017899	0.233471	-0.215572
7.800000	0.143281	-0.113706	-0.256987	-0.017075	0.231095	-0.214019
7.805000	0.140039	-0.113085	-0.253123	-0.015562	0.226992	-0.211430
7.810000	0.135950	-0.111843	-0.247793	-0.013918	0.221554	-0.207636
7.815000	0.131915	-0.110447	-0.242362	-0.012395	0.216089	-0.203694
7.820000	0.128505	-0.109695	-0.238200	-0.010860	0.211717	-0.200857
7.825000	0.125219	-0.109642	-0.234860	-0.008994	0.207892	-0.198898
7.830000	0.121309	-0.109830	-0.231139	-0.006627	0.203486	-0.196858
7.835000	0.116653	-0.110377	-0.227031	-0.003624	0.198426	-0.194802
7.840000	0.111117	-0.111959	-0.223076	0.000487	0.192946	-0.193433
7.845000	0.104866	-0.114557	-0.219423	0.005595	0.187228	-0.192824
7.850000	0.098763	-0.117335	-0.216098	0.010722	0.181785	-0.192507
7.855000	0.093939	-0.119292	-0.213231	0.014637	0.177345	-0.191982
7.860000	0.091728	-0.119975	-0.211703	0.016309	0.175186	-0.191494
7.865000	0.093263	-0.119079	-0.212343	0.014905	0.176442	-0.191346
7.870000	0.099334	-0.117151	-0.216485	0.010287	0.182338	-0.192625
7.875000	0.109863	-0.114890	-0.224754	0.002902	0.193191	-0.196093
7.880000	0.123382	-0.112274	-0.235656	-0.006413	0.207290	-0.200877
7.885000	0.138195	-0.109015	-0.247210	-0.016847	0.222514	-0.205667
7.890000	0.152931	-0.104723	-0.257654	-0.027832	0.237051	-0.209219
7.895000	0.166207	-0.099971	-0.266179	-0.038241	0.249638	-0.211397
7.900000	0.176811	-0.096186	-0.272996	-0.046549	0.259696	-0.213147
7.905000	0.184202	-0.093518	-0.277720	-0.052357	0.266691	-0.214335
7.910000	0.188382	-0.091398	-0.279779	-0.055994	0.270293	-0.214299
7.915000	0.189218	-0.090475	-0.279693	-0.057009	0.270726	-0.213717
7.920000	0.186810	-0.091558	-0.278367	-0.054994	0.268570	-0.213576
7.925000	0.181588	-0.094017	-0.275605	-0.050559	0.263960	-0.213401
7.930000	0.174640	-0.096578	-0.271218	-0.045069	0.257416	-0.212348
7.935000	0.167579	-0.098540	-0.266119	-0.039860	0.250395	-0.210535
7.940000	0.164453	-0.097887	-0.262340	-0.038432	0.246408	-0.207977
7.945000	0.172850	-0.088653	-0.261502	-0.048611	0.250773	-0.202162
7.950000	0.190698	-0.058599	-0.249297	-0.076267	0.254031	-0.177764
7.955000	0.202439	0.015955	-0.186483	-0.126090	0.224544	-0.098455
7.960000	0.189071	0.159341	-0.029730	-0.201156	0.126324	0.074831
7.965000	0.134891	0.377452	0.242561	-0.295801	-0.062164	0.357965
7.970000	0.036616	0.643447	0.606831	-0.392634	-0.329214	0.721848
7.975000	-0.087503	0.896976	0.984478	-0.467349	-0.618908	1.086257
7.980000	-0.206082	1.073485	1.279567	-0.500795	-0.857740	1.358535
7.985000	-0.291493	1.133394	1.424887	-0.486071	-0.990952	1.477024
7.990000	-0.330213	1.071236	1.401448	-0.427830	-0.999775	1.427604
7.995000	-0.319062	0.906052	1.225114	-0.338899	-0.891530	1.230429
8.000000	-0.261410	0.674526	0.935936	-0.238512	-0.691288	0.929800
8.005000	-0.173186	0.427418	0.600604	-0.146781	-0.446748	0.593528
8.010000	-0.078142	0.210861	0.289004	-0.076625	-0.211972	0.288597
8.015000	0.003816	0.049945	0.046129	-0.031039	-0.024429	0.055468
8.020000	0.062748	-0.052444	-0.115192	-0.005949	0.102734	-0.096785
8.025000	0.097538	-0.107191	-0.204729	0.005573	0.174514	-0.180087
8.030000	0.112855	-0.130066	-0.242921	0.009937	0.205407	-0.215344
8.035000	0.115547	-0.136096	-0.251642	0.011864	0.211997	-0.223861
8.040000	0.111268	-0.136305	-0.247573	0.014455	0.207176	-0.221632
8.045000	0.104043	-0.136076	-0.240119	0.018494	0.198702	-0.217196
8.050000	0.096640	-0.136515	-0.233155	0.023022	0.190407	-0.213429
8.055000	0.091138	-0.137142	-0.228279	0.026560	0.184416	-0.210976
8.060000	0.089143	-0.137268	-0.226411	0.027785	0.182185	-0.209971
8.065000	0.091512	-0.136206	-0.227718	0.025804	0.184307	-0.210111
8.070000	0.098634	-0.134309	-0.232943	0.020597	0.191436	-0.212033
8.075000	0.109899	-0.132049	-0.241949	0.012788	0.203139	-0.215928
8.080000	0.123731	-0.129651	-0.253382	0.003418	0.217726	-0.221144
8.085000	0.138581	-0.126930	-0.265510	-0.006727	0.233302	-0.226575
8.090000	0.153081	-0.123814	-0.276895	-0.016898	0.248247	-0.231349
8.095000	0.165681	-0.120619	-0.286300	-0.026016	0.260951	-0.234935
8.100000	0.175315	-0.117788	-0.293103	-0.033213	0.270442	-0.237228
8.105000	0.181819	-0.115271	-0.297089	-0.038421	0.276498	-0.238076
8.110000	0.185245	-0.112956	-0.298201	-0.041736	0.279117	-0.237381
8.115000	0.185429	-0.111446	-0.296874	-0.042714	0.278458	-0.235744
8.120000	0.182533	-0.111465	-0.293998	-0.041031	0.275125	-0.234094
8.125000	0.176943	-0.112708	-0.289651	-0.037086	0.269388	-0.232302
8.130000	0.169795	-0.114381	-0.284177	-0.031993	0.262101	-0.230107
8.135000	0.162608	-0.116005	-0.278613	-0.026907	0.254739	-0.227833
8.140000	0.156505	-0.116982	-0.273487	-0.022818	0.248256	-0.225437
8.145000	0.151331	-0.117120	-0.268451	-0.019752	0.242361	-0.222609
8.150000	0.146356	-0.116950	-0.263306	-0.016978	0.236518	-0.219540
8.155000	0.141465	-0.116785	-0.258250	-0.014249	0.230775	-0.216526
8.160000	0.137076	-0.116541	-0.253617	-0.011856	0.225566	-0.213711
8.165000	0.133531	-0.116287	-0.249818	-0.009956	0.221327	-0.211371
8.170000	0.130870	-0.116280	-0.247149	-0.008423	0.218249	-0.209826
8.175000	0.129012	-0.116251	-0.245263	-0.007368	0.216087	-0.208720
8.180000	0.127809	-0.115869	-0.243678	-0.006894	0.214478	-0.207584
8.185000	0.127074	-0.115228	-0.242302	-0.006840	0.213259	-0.206420
8.190000	0.126544	-0.114499	-0.241043	-0.006954	0.212226	-0.205272
8.195000	0.125479	-0.113650	-0.239129	-0.006830	0.210506	-0.203677
8.200000	0.123126	-0.112602	-0.235729	-0.006076	0.207185	-0.201109
8.205000	0.119655	-0.111269	-0.230923	-0.004842	0.202406	-0.197564
8.210000	0.115816	-0.109911	-0.225727	-0.003409	0.197190	-0.193781
8.215000	0.112250	-0.108853	-0.221103	-0.001961	0.192461	-0.190500
8.220000	0.108912	-0.108545	-0.217457	-0.000212	0.188429	-0.188217
8.225000	0.105136	-0.108894	-0.214030	0.002170	0.184270	-0.186440
8.230000	0.100702	-0.109431	-0.210133	0.005040	0.179461	-0.184501
8.235000	0.095589	-0.110614	-0.206203	0.008675	0.174240	-0.182915
8.240000	0.089771	-0.113075	-0.202846	0.013454	0.168943	-0.182397
8.245000	0.083789	-0.116258	-0.200047	0.018746	0.163873	-0.182619
8.250000	0.078576	-0.118871	-0.197447	0.023264	0.159362	-0.182626
8.255000	0.075485	-0.120174	-0.195659	0.025802	0.156545	-0.182346
8.260000	0.075753	-0.119580	-0.195333	0.025303	0.156511	-0.181815
8.265000	0.080242	-0.117403	-0.197645	0.021455	0.160438	-0.181893
8.270000	0.089308	-0.114875	-0.204183	0.014761	0.169447	-0.184208
8.275000	0.101877	-0.112472	-0.214350	0.006117	0.182574	-0.188690
8.280000	0.116267	-0.109610	-0.225877	-0.003843	0.197537	-0.193694
8.285000	0.131034	-0.105861	-0.236895	-0.014534	0.212424	-0.197890
8.290000	0.144748	-0.101764	-0.246512	-0.024817	0.225894	-0.201077
8.295000	0.156043	-0.098158	-0.254201	-0.033420	0.236854	-0.203434
8.300000	0.164173	-0.095242	-0.259415	-0.039798	0.244559	-0.204761
8.305000	0.169088	-0.092805	-0.261892	-0.044042	0.248826	-0.204784
8.310000	0.170750	-0.091179	-0.261929	-0.045940	0.249807	-0.203867
8.315000	0.169186	-0.091219	-0.260405	-0.045014	0.248025	-0.203010
8.320000	0.164631	-0.092987	-0.257618	-0.041364	0.243786	-0.202422
8.325000	0.157898	-0.095377	-0.253276	-0.036097	0.237391	-0.201295
8.330000	0.150483	-0.097280	-0.247764	-0.030717	0.229928	-0.199211
8.335000	0.145227	-0.097613	-0.242841	-0.027490	0.224051	-0.196561
8.340000	0.149559	-0.092153	-0.241711	-0.033143	0.225900	-0.192757
8.345000	0.165807	-0.071073	-0.236881	-0.054695	0.232492	-0.177797
8.350000	0.181854	-0.013880	-0.195734	-0.096979	0.218001	-0.121021
8.355000	0.178636	0.105502	-0.073133	-0.164047	0.145359	0.018688
8.360000	0.138779	0.300647	0.161868	-0.253703	-0.013330	0.267033
8.365000	0.053585	0.556771	0.503185	-0.352389	-0.259577	0.611966
8.370000	-0.065352	0.821793	0.887145	-0.436731	-0.549924	0.986656
8.375000	-0.188965	1.028536	1.217500	-0.484726	-0.812023	1.296749
8.380000	-0.286962	1.128069	1.415032	-0.485613	-0.982646	1.468259
8.385000	-0.341169	1.104382	1.445551	-0.440641	-1.031562	1.472203
8.390000	-0.346070	0.969216	1.315286	-0.359773	-0.959184	1.318957
8.395000	-0.302403	0.753678	1.056081	-0.260544	-0.784321	1.044865
8.400000	-0.221870	0.505820	0.727690	-0.163939	-0.548228	0.712167
8.405000	-0.126771	0.275477	0.402248	-0.085856	-0.305429	0.391284
8.410000	-0.039120	0.095236	0.134356	-0.032399	-0.100156	0.132555
8.415000	0.027787	-0.025298	-0.053085	-0.001437	0.046691	-0.045255
8.420000	0.070257	-0.093717	-0.163974	0.013545	0.135233	-0.148778
8.425000	0.091309	-0.125044	-0.216352	0.019477	0.177628	-0.197105
8.430000	0.097416	-0.134847	-0.232264	0.021611	0.190341	-0.211952
8.435000	0.094796	-0.135933	-0.230729	0.023750	0.187941	-0.211692
8.440000	0.088077	-0.135714	-0.223791	0.027503	0.180057	-0.207560
8.445000	0.080444	-0.136217	-0.216661	0.032200	0.171534	-0.203734
8.450000	0.074106	-0.137067	-0.211173	0.036350	0.164706	-0.201056
8.455000	0.070883	-0.137841	-0.208724	0.038658	0.161431	-0.200089
8.460000	0.071851	-0.137546	-0.209396	0.037929	0.162378	-0.200307
8.465000	0.077461	-0.135802	-0.213263	0.033683	0.167850	-0.201533
8.470000	0.087624	-0.133397	-0.221020	0.026427	0.178196	-0.204623
8.475000	0.100936	-0.130703	-0.231639	0.017186	0.192012	-0.209198
8.480000	0.115690	-0.127379	-0.243069	0.006749	0.207129	-0.213878
8.485000	0.130515	-0.123328	-0.253843	-0.004149	0.221909	-0.217760
8.490000	0.143981	-0.119160	-0.263142	-0.014330	0.235052	-0.220722
8.495000	0.154817	-0.115598	-0.270415	-0.022643	0.245508	-0.222865
8.500000	0.162443	-0.112725	-0.275169	-0.028705	0.252655	-0.223951
8.505000	0.166867	-0.110632	-0.277499	-0.032468	0.256555	-0.224087
8.510000	0.167977	-0.109721	-0.277698	-0.033634	0.257311	-0.223677
8.515000	0.165884	-0.110293	-0.276178	-0.032096	0.255224	-0.223129
8.520000	0.160926	-0.112205	-0.273131	-0.028129	0.250603	-0.222474
8.525000	0.153991	-0.114563	-0.268554	-0.022764	0.243957	-0.221193
8.530000	0.146633	-0.116390	-0.263023	-0.017461	0.236515	-0.219055
8.535000	0.140183	-0.117477	-0.257659	-0.013110	0.229694	-0.216585
8.540000	0.134806	-0.117941	-0.252746	-0.009737	0.223753	-0.214016
8.545000	0.129738	-0.117735	-0.247473	-0.006930	0.217782	-0.210853
8.550000	0.124700	-0.117150	-0.241851	-0.004359	0.211628	-0.207269
8.555000	0.119997	-0.116709	-0.236706	-0.001899	0.205942	-0.204044
8.560000	0.116059	-0.116459	-0.232518	0.000231	0.201251	-0.201482
8.565000	0.113120	-0.116189	-0.229310	0.001772	0.197702	-0.199474
8.570000	0.111253	-0.115992	-0.227245	0.002736	0.195432	-0.198168
8.575000	0.110246	-0.115818	-0.226064	0.003217	0.194169	-0.197386
8.580000	0.109766	-0.115400	-0.225166	0.003253	0.193373	-0.196625
8.585000	0.109508	-0.114925	-0.224434	0.003127	0.192801	-0.195929
8.590000	0.108811	-0.114399	-0.223210	0.003226	0.191692	-0.194919
8.595000	0.106805	-0.113533	-0.220339	0.003884	0.188877	-0.192761
8.600000	0.103439	-0.112175	-0.215614	0.005043	0.184205	-0.189249
8.605000	0.099369	-0.110788	-0.210156	0.006593	0.178704	-0.185297
8.610000	0.095441	-0.109755	-0.205196	0.008264	0.173573	-0.181837
8.615000	0.092016	-0.109232	-0.201248	0.009940	0.169316	-0.179255
8.620000	0.088486	-0.109316	-0.197803	0.012026	0.165289	-0.177315
8.625000	0.084400	-0.109746	-0.194147	0.014634	0.160819	-0.175453
8.630000	0.079504	-0.110518	-0.190022	0.017906	0.155611	-0.173517
8.635000	0.073691	-0.112464	-0.186155	0.022386	0.150022	-0.172407
8.640000	0.067515	-0.115513	-0.183028	0.027711	0.144651	-0.172362
8.645000	0.061894	-0.118087	-0.179982	0.032443	0.139647	-0.172090
8.650000	0.058154	-0.119408	-0.177562	0.035365	0.136091	-0.171456
8.655000	0.057633	-0.119448	-0.177082	0.035689	0.135513	-0.171202
8.660000	0.061070	-0.117918	-0.178989	0.032821	0.138598	-0.171419
8.665000	0.068890	-0.115387	-0.184277	0.026845	0.146166	-0.173011
8.670000	0.080499	-0.112926	-0.193425	0.018722	0.158150	-0.176871
8.675000	0.094423	-0.110582	-0.205004	0.009329	0.172874	-0.182204
8.680000	0.109183	-0.107301	-0.216483	-0.001087	0.188023	-0.186937
8.685000	0.123406	-0.103056	-0.226462	-0.011749	0.201996	-0.190247
8.690000	0.135675	-0.099121	-0.234796	-0.021105	0.213892	-0.192787
8.695000	0.144952	-0.095923	-0.240875	-0.028307	0.222757	-0.194450
8.700000	0.150994	-0.093280	-0.244274	-0.033321	0.228208	-0.194887
8.705000	0.153740	-0.091643	-0.245383	-0.035852	0.230434	-0.194582
8.710000	0.153002	-0.091550	-0.244552	-0.035480	0.229528	-0.194048
8.715000	0.148990	-0.092995	-0.241985	-0.032329	0.225730	-0.193401
8.720000	0.142545	-0.095517	-0.238062	-0.027152	0.219744	-0.192592
8.725000	0.135187	-0.098067	-0.233254	-0.021431	0.212719	-0.191288
8.730000	0.129069	-0.099174	-0.228243	-0.017260	0.206294	-0.189034
8.735000	0.130623	-0.095420	-0.226044	-0.020324	0.205922	-0.185597
8.740000	0.144785	-0.079244	-0.224029	-0.037840	0.212935	-0.175095
8.745000	0.162604	-0.032844	-0.195447	-0.074917	0.206721	-0.131804
8.750000	0.165569	0.070156	-0.095413	-0.136095	0.150678	-0.014582
8.755000	0.135558	0.247441	0.111882	-0.221124	0.013669	0.207455
8.760000	0.060738	0.492458	0.431720	-0.319388	-0.214187	0.533574
8.765000	-0.052666	0.761564	0.814230	-0.409282	-0.500502	0.909785
8.770000	-0.178400	0.987611	1.166011	-0.467198	-0.776196	1.243394
8.775000	-0.284788	1.115133	1.399921	-0.479400	-0.972667	1.452066
8.780000	-0.350091	1.120291	1.470382	-0.444675	-1.051050	1.495725
8.785000	-0.366580	1.009336	1.375916	-0.371096	-1.006030	1.377126
8.790000	-0.333641	0.808800	1.142441	-0.274333	-0.852216	1.126549
8.795000	-0.259911	0.563632	0.823543	-0.175354	-0.625532	0.800886
8.800000	-0.166057	0.325584	0.491641	-0.092103	-0.379722	0.471825
8.805000	-0.075168	0.132082	0.207250	-0.032859	-0.163054	0.195913
8.810000	-0.002968	-0.002107	0.000861	0.002930	-0.002211	-0.000720
8.815000	0.044872	-0.081335	-0.126208	0.021052	0.098773	-0.119825
8.820000	0.070226	-0.120179	-0.190405	0.028840	0.150475	-0.179316
8.825000	0.079134	-0.134453	-0.213587	0.031939	0.169002	-0.200941
8.830000	0.078013	-0.137129	-0.215142	0.034130	0.169253	-0.203383
8.835000	0.071948	-0.137021	-0.208969	0.037570	0.162188	-0.199757
8.840000	0.064567	-0.137501	-0.202068	0.042108	0.153942	-0.196050
8.845000	0.058136	-0.138122	-0.196259	0.046180	0.146875	-0.193055
8.850000	0.054296	-0.138431	-0.192727	0.048575	0.142619	-0.191194
8.855000	0.054307	-0.138205	-0.192512	0.048439	0.142501	-0.190940
8.860000	0.058824	-0.136839	-0.195663	0.045042	0.146928	-0.191970
8.865000	0.067951	-0.134486	-0.202438	0.038414	0.156109	-0.194523
