Time	Lead I	Lead II	Lead III	aVR	aVL	aVF
0.000000	-0.000951	-0.000132	0.000819	0.000625	-0.001022	0.000397
0.005000	-0.020417	-0.003407	0.017010	0.013755	-0.021609	0.007854
0.010000	-0.090126	-0.015948	0.074178	0.061242	-0.094861	0.033619
0.015000	-0.209622	-0.038142	0.171480	0.143046	-0.220030	0.076983
0.020000	-0.349054	-0.064496	0.284558	0.238763	-0.365816	0.127053
0.025000	-0.475633	-0.088730	0.386903	0.325835	-0.497985	0.172150
0.030000	-0.569974	-0.107050	0.462924	0.390880	-0.596344	0.205464
0.035000	-0.628329	-0.118611	0.509717	0.431246	-0.657051	0.225805
0.040000	-0.657241	-0.124532	0.532709	0.451357	-0.687018	0.235661
0.045000	-0.666860	-0.126542	0.540318	0.458071	-0.696965	0.238894
0.050000	-0.666317	-0.126355	0.539962	0.457649	-0.696445	0.238796
0.055000	-0.661948	-0.125366	0.536582	0.454556	-0.691971	0.237415
0.060000	-0.657160	-0.124259	0.532901	0.451152	-0.687081	0.235930
0.065000	-0.653134	-0.123302	0.529832	0.448276	-0.682985	0.234710
0.070000	-0.649949	-0.122545	0.527404	0.446000	-0.679745	0.233745
0.075000	-0.647336	-0.121976	0.525360	0.444162	-0.677056	0.232894
0.080000	-0.644978	-0.121548	0.523430	0.442554	-0.674580	0.232026
0.085000	-0.642669	-0.121223	0.521445	0.441033	-0.672101	0.231068
0.090000	-0.640310	-0.120923	0.519387	0.439498	-0.669551	0.230053
0.095000	-0.637917	-0.120557	0.517359	0.437905	-0.666999	0.229094
0.100000	-0.635523	-0.120165	0.515358	0.436297	-0.664461	0.228165
0.105000	-0.633058	-0.119718	0.513340	0.434615	-0.661873	0.227257
0.110000	-0.630487	-0.119159	0.511328	0.432808	-0.659227	0.226419
0.115000	-0.627851	-0.118445	0.509405	0.430874	-0.656595	0.225721
0.120000	-0.625214	-0.117654	0.507560	0.428895	-0.654007	0.225112
0.125000	-0.622615	-0.116930	0.505684	0.426977	-0.651424	0.224447
0.130000	-0.620031	-0.116342	0.503689	0.425145	-0.648779	0.223634
0.135000	-0.617458	-0.115895	0.501563	0.423402	-0.646067	0.222666
0.140000	-0.614883	-0.115492	0.499391	0.421682	-0.643326	0.221644
0.145000	-0.612323	-0.115065	0.497258	0.419958	-0.640617	0.220659
0.150000	-0.609733	-0.114578	0.495155	0.418181	-0.637907	0.219726
0.155000	-0.607080	-0.114063	0.493017	0.416352	-0.635141	0.218789
0.160000	-0.604540	-0.113641	0.490900	0.414642	-0.632452	0.217810
0.165000	-0.602182	-0.113389	0.488793	0.413135	-0.629874	0.216740
0.170000	-0.599885	-0.113222	0.486663	0.411712	-0.627318	0.215606
0.175000	-0.597591	-0.112978	0.484613	0.410247	-0.624810	0.214563
0.180000	-0.595327	-0.112639	0.482688	0.408744	-0.622392	0.213648
0.185000	-0.593066	-0.112316	0.480751	0.407252	-0.619968	0.212716
0.190000	-0.590769	-0.112013	0.478756	0.405751	-0.617490	0.211739
0.195000	-0.588424	-0.111622	0.476803	0.404172	-0.615009	0.210837
0.200000	-0.586001	-0.111138	0.474863	0.402493	-0.612490	0.209997
0.205000	-0.583543	-0.110597	0.472947	0.400762	-0.609965	0.209203
0.210000	-0.581073	-0.109999	0.471073	0.398990	-0.607457	0.208466
0.215000	-0.578609	-0.109424	0.469185	0.397236	-0.604944	0.207708
0.220000	-0.576163	-0.108960	0.467203	0.395555	-0.602388	0.206832
0.225000	-0.573730	-0.108591	0.465140	0.393938	-0.599791	0.205854
0.230000	-0.571291	-0.108209	0.463082	0.392310	-0.597195	0.204886
0.235000	-0.568849	-0.107782	0.461068	0.390653	-0.594622	0.203970
0.240000	-0.566461	-0.107397	0.459064	0.389052	-0.592087	0.203035
0.245000	-0.564158	-0.107088	0.457070	0.387544	-0.589606	0.202062
0.250000	-0.561917	-0.106778	0.455139	0.386071	-0.587197	0.201127
0.255000	-0.559641	-0.106411	0.453230	0.384545	-0.584781	0.200236
0.260000	-0.557281	-0.105959	0.451322	0.382922	-0.582317	0.199395
0.265000	-0.554901	-0.105474	0.449428	0.381268	-0.579849	0.198582
0.270000	-0.552552	-0.105083	0.447470	0.379686	-0.577363	0.197677
0.275000	-0.550294	-0.104765	0.445529	0.378198	-0.574938	0.196740
0.280000	-0.548125	-0.104401	0.443724	0.376736	-0.572644	0.195908
0.285000	-0.545983	-0.103951	0.442032	0.375239	-0.570430	0.195191
0.290000	-0.543831	-0.103448	0.440384	0.373706	-0.568237	0.194530
0.295000	-0.541658	-0.102986	0.438671	0.372185	-0.565993	0.193808
0.300000	-0.539501	-0.102643	0.436857	0.370742	-0.563700	0.192958
0.305000	-0.537376	-0.102344	0.435032	0.369342	-0.561420	0.192078
0.310000	-0.535185	-0.101976	0.433210	0.367865	-0.559103	0.191238
0.315000	-0.532886	-0.101430	0.431457	0.366222	-0.556763	0.190541
0.320000	-0.530548	-0.100759	0.429789	0.364485	-0.554451	0.189966
0.325000	-0.528243	-0.100100	0.428143	0.362773	-0.552169	0.189396
0.330000	-0.525973	-0.099482	0.426490	0.361106	-0.549905	0.188798
0.335000	-0.523765	-0.098980	0.424785	0.359542	-0.547646	0.188104
0.340000	-0.521559	-0.098609	0.422950	0.358054	-0.545313	0.187259
0.345000	-0.519273	-0.098254	0.421019	0.356529	-0.542878	0.186349
0.350000	-0.516951	-0.097937	0.419014	0.355006	-0.540379	0.185373
0.355000	-0.514608	-0.097723	0.416885	0.353529	-0.537797	0.184268
0.360000	-0.512222	-0.097534	0.414687	0.352043	-0.535151	0.183108
0.365000	-0.509786	-0.097251	0.412535	0.350473	-0.532502	0.182029
0.370000	-0.507396	-0.096877	0.410519	0.348877	-0.529958	0.181081
0.375000	-0.505069	-0.096423	0.408647	0.347271	-0.527534	0.180263
0.380000	-0.502728	-0.095912	0.406816	0.345625	-0.525125	0.179500
0.385000	-0.500376	-0.095413	0.404964	0.343979	-0.522698	0.178719
0.390000	-0.498037	-0.094919	0.403118	0.342343	-0.520281	0.177938
0.395000	-0.495735	-0.094447	0.401288	0.340741	-0.517896	0.177155
0.400000	-0.493475	-0.094067	0.399408	0.339217	-0.515506	0.176289
0.405000	-0.491280	-0.093765	0.397515	0.337776	-0.513145	0.175370
0.410000	-0.489231	-0.093421	0.395810	0.336394	-0.510978	0.174584
0.415000	-0.487331	-0.093014	0.394318	0.335062	-0.509020	0.173958
0.420000	-0.485465	-0.092545	0.392921	0.333714	-0.507136	0.173422
0.425000	-0.483522	-0.092008	0.391514	0.332282	-0.505202	0.172919
0.430000	-0.481452	-0.091439	0.390013	0.330759	-0.503140	0.172381
0.435000	-0.479264	-0.090936	0.388329	0.329205	-0.500905	0.171700
0.440000	-0.476995	-0.090547	0.386447	0.327670	-0.498508	0.170838
0.445000	-0.474713	-0.090244	0.384468	0.326178	-0.496048	0.169870
0.450000	-0.472503	-0.089997	0.382506	0.324759	-0.493639	0.168880
0.455000	-0.470329	-0.089734	0.380595	0.323352	-0.491281	0.167929
0.460000	-0.468132	-0.089376	0.378757	0.321877	-0.488951	0.167074
0.465000	-0.465912	-0.088944	0.376967	0.320346	-0.486636	0.166290
0.470000	-0.463679	-0.088524	0.375154	0.318815	-0.484300	0.165486
0.475000	-0.461406	-0.088147	0.373258	0.317284	-0.481893	0.164609
0.480000	-0.459139	-0.087809	0.371330	0.315780	-0.479472	0.163691
0.485000	-0.457043	-0.087488	0.369555	0.314384	-0.477236	0.162852
0.490000	-0.455162	-0.087083	0.368079	0.313065	-0.475298	0.162233
0.495000	-0.453413	-0.086552	0.366861	0.311749	-0.473585	0.161836
0.500000	-0.451586	-0.085956	0.365630	0.310350	-0.471820	0.161470
0.505000	-0.449621	-0.085376	0.364245	0.308881	-0.469886	0.161005
0.510000	-0.447544	-0.084838	0.362706	0.307371	-0.467798	0.160427
0.515000	-0.445408	-0.084398	0.361011	0.305883	-0.465586	0.159703
0.520000	-0.443209	-0.084074	0.359135	0.304427	-0.463234	0.158807
0.525000	-0.440947	-0.083738	0.357209	0.302927	-0.460816	0.157889
0.530000	-0.438722	-0.083284	0.355438	0.301381	-0.458508	0.157128
0.535000	-0.436569	-0.082820	0.353749	0.299870	-0.456290	0.156421
0.540000	-0.434511	-0.082352	0.352159	0.298411	-0.454184	0.155773
0.545000	-0.432566	-0.081906	0.350660	0.297031	-0.452196	0.155165
0.550000	-0.430665	-0.081594	0.349070	0.295753	-0.450180	0.154427
0.555000	-0.428766	-0.081423	0.347343	0.294558	-0.448087	0.153529
0.560000	-0.426882	-0.081199	0.345683	0.293341	-0.446040	0.152700
0.565000	-0.424988	-0.080790	0.344198	0.292011	-0.444090	0.152079
0.570000	-0.422967	-0.080322	0.342645	0.290574	-0.442026	0.151452
0.575000	-0.420820	-0.079890	0.340930	0.289084	-0.439796	0.150712
0.580000	-0.418646	-0.079487	0.339159	0.287598	-0.437519	0.149921
0.585000	-0.416523	-0.079107	0.337416	0.286152	-0.435287	0.149135
0.590000	-0.414476	-0.078742	0.335735	0.284759	-0.433134	0.148375
0.595000	-0.412488	-0.078399	0.334089	0.283413	-0.431036	0.147623
0.600000	-0.410507	-0.078133	0.332375	0.282116	-0.428903	0.146787
0.605000	-0.408518	-0.077894	0.330624	0.280830	-0.426744	0.145913
0.610000	-0.406573	-0.077556	0.329017	0.279512	-0.424693	0.145181
0.615000	-0.404657	-0.077102	0.327555	0.278144	-0.422743	0.144599
0.620000	-0.402678	-0.076635	0.326043	0.276731	-0.420727	0.143996
0.625000	-0.400646	-0.076191	0.324455	0.275301	-0.418637	0.143336
0.630000	-0.398578	-0.075735	0.322843	0.273844	-0.416513	0.142668
0.635000	-0.396480	-0.075279	0.321201	0.272370	-0.414353	0.141983
0.640000	-0.394373	-0.074817	0.319557	0.270887	-0.412188	0.141301
0.645000	-0.392257	-0.074307	0.317950	0.269371	-0.410038	0.140667
0.650000	-0.390215	-0.073839	0.316376	0.267922	-0.407950	0.140029
0.655000	-0.388289	-0.073468	0.314821	0.266595	-0.405940	0.139345
0.660000	-0.386433	-0.073103	0.313330	0.265313	-0.404008	0.138695
0.665000	-0.384607	-0.072675	0.311932	0.264012	-0.402147	0.138135
0.670000	-0.382758	-0.072288	0.310470	0.262721	-0.400235	0.137514
0.675000	-0.380856	-0.071995	0.308861	0.261454	-0.398208	0.136754
0.680000	-0.378901	-0.071737	0.307164	0.260176	-0.396100	0.135924
0.685000	-0.376899	-0.071495	0.305404	0.258881	-0.393928	0.135047
0.690000	-0.374839	-0.071241	0.303598	0.257545	-0.391696	0.134151
0.695000	-0.372783	-0.070909	0.301874	0.256166	-0.389514	0.133348
0.700000	-0.370801	-0.070534	0.300267	0.254805	-0.387441	0.132636
0.705000	-0.368905	-0.070172	0.298733	0.253501	-0.385461	0.131960
0.710000	-0.367074	-0.069828	0.297246	0.252246	-0.383545	0.131300
0.715000	-0.365269	-0.069544	0.295725	0.251039	-0.381625	0.130586
0.720000	-0.363505	-0.069332	0.294173	0.249898	-0.379710	0.129812
0.725000	-0.361790	-0.069091	0.292699	0.248769	-0.377869	0.129100
0.730000	-0.360080	-0.068727	0.291353	0.247572	-0.376105	0.128533
0.735000	-0.358272	-0.068230	0.290042	0.246241	-0.374305	0.128063
0.740000	-0.356354	-0.067672	0.288682	0.244812	-0.372411	0.127600
0.745000	-0.354450	-0.067163	0.287287	0.243418	-0.370507	0.127089
0.750000	-0.352605	-0.066790	0.285815	0.242138	-0.368592	0.126454
0.755000	-0.350768	-0.066574	0.284194	0.240952	-0.366595	0.125643
0.760000	-0.348930	-0.066445	0.282485	0.239817	-0.364547	0.124731
0.765000	-0.347110	-0.066330	0.280780	0.238699	-0.362512	0.123813
0.770000	-0.345326	-0.066144	0.279182	0.237562	-0.360560	0.122998
0.775000	-0.343550	-0.065772	0.277778	0.236322	-0.358723	0.122402
0.780000	-0.341680	-0.065269	0.276411	0.234952	-0.356855	0.121902
0.785000	-0.339663	-0.064799	0.274865	0.233516	-0.354798	0.121282
0.790000	-0.337595	-0.064386	0.273209	0.232084	-0.352647	0.120564
0.795000	-0.335594	-0.063987	0.271607	0.230698	-0.350568	0.119869
0.800000	-0.333893	-0.063800	0.270093	0.229608	-0.348711	0.119103
0.805000	-0.332525	-0.064244	0.268281	0.229075	-0.346875	0.117801
0.810000	-0.331124	-0.064901	0.266223	0.228645	-0.344879	0.116234
0.815000	-0.329100	-0.064243	0.264856	0.227097	-0.342921	0.115824
0.820000	-0.325456	-0.061264	0.264192	0.223273	-0.340434	0.117161
0.825000	-0.319396	-0.055891	0.263505	0.216672	-0.336538	0.119866
0.830000	-0.311201	-0.047655	0.263545	0.207186	-0.331830	0.124644
0.835000	-0.301787	-0.036462	0.265326	0.195288	-0.327423	0.132135
0.840000	-0.291470	-0.023365	0.268105	0.181770	-0.323070	0.141300
0.845000	-0.281068	-0.009740	0.271328	0.167898	-0.318926	0.151027
0.850000	-0.271977	0.002480	0.274457	0.155594	-0.315484	0.159889
0.855000	-0.265507	0.011336	0.276843	0.146745	-0.313126	0.166380
0.860000	-0.262495	0.015985	0.278480	0.142322	-0.312332	0.170010
0.865000	-0.262588	0.016152	0.278739	0.142280	-0.312535	0.170255
0.870000	-0.265206	0.011828	0.277034	0.146288	-0.313062	0.166774
0.875000	-0.270125	0.002801	0.272927	0.154340	-0.313531	0.159192
0.880000	-0.276822	-0.010158	0.266664	0.165688	-0.313782	0.148094
0.885000	-0.284059	-0.024608	0.259451	0.178209	-0.313795	0.135587
0.890000	-0.290423	-0.037703	0.252719	0.189444	-0.313583	0.124139
0.895000	-0.294983	-0.047558	0.247426	0.197766	-0.313160	0.115394
0.900000	-0.297423	-0.053749	0.243674	0.202749	-0.312403	0.109653
0.905000	-0.297938	-0.056866	0.241072	0.204846	-0.311197	0.106352
0.910000	-0.297113	-0.057827	0.239287	0.204925	-0.309691	0.104766
0.915000	-0.295556	-0.057577	0.237979	0.203881	-0.308036	0.104155
0.920000	-0.293712	-0.056953	0.236759	0.202457	-0.306267	0.103811
0.925000	-0.291823	-0.056400	0.235423	0.201047	-0.304406	0.103359
0.930000	-0.289941	-0.055948	0.233993	0.199699	-0.302493	0.102794
0.935000	-0.288115	-0.055586	0.232529	0.198436	-0.300593	0.102158
0.940000	-0.286377	-0.055287	0.231090	0.197259	-0.298759	0.101500
0.945000	-0.284685	-0.055033	0.229652	0.196136	-0.296952	0.100817
0.950000	-0.283021	-0.054852	0.228169	0.195071	-0.295135	0.100065
0.955000	-0.282057	-0.056713	0.225344	0.195589	-0.292948	0.097359
0.960000	-0.285726	-0.069222	0.216505	0.204929	-0.289963	0.085034
0.965000	-0.299273	-0.103832	0.195441	0.232732	-0.285623	0.052890
0.970000	-0.320253	-0.166437	0.153816	0.280991	-0.273703	-0.007287
0.975000	-0.329731	-0.252694	0.077038	0.336263	-0.234848	-0.101415
0.980000	-0.296306	-0.344645	-0.048339	0.370053	-0.143164	-0.226889
0.985000	-0.197030	-0.413176	-0.216146	0.352303	0.011037	-0.363339
0.990000	-0.033940	-0.427661	-0.393721	0.266505	0.207720	-0.474224
0.995000	0.161750	-0.368592	-0.530341	0.119420	0.399579	-0.518999
1.000000	0.341482	-0.235357	-0.576839	-0.061272	0.530193	-0.468921
1.005000	0.462154	-0.045621	-0.507776	-0.240485	0.559989	-0.319504
1.010000	0.502727	0.167585	-0.335142	-0.387004	0.483743	-0.096739
1.015000	0.467696	0.364959	-0.102737	-0.480734	0.329340	0.151394
1.020000	0.377195	0.511625	0.134430	-0.513160	0.140160	0.373000
1.025000	0.255319	0.584646	0.329327	-0.484954	-0.042729	0.527683
1.030000	0.124284	0.579938	0.455654	-0.406583	-0.191316	0.597899
1.035000	0.001830	0.513335	0.511505	-0.297430	-0.294261	0.591691
1.040000	-0.100458	0.413397	0.513855	-0.180676	-0.354673	0.535349
1.045000	-0.177357	0.309728	0.487085	-0.076424	-0.383616	0.460040
1.050000	-0.229038	0.223153	0.452191	0.003398	-0.393307	0.389910
1.055000	-0.259157	0.162335	0.421492	0.055900	-0.392972	0.337073
1.060000	-0.272825	0.126246	0.399071	0.084627	-0.387919	0.303292
1.065000	-0.275678	0.108671	0.384348	0.096421	-0.381066	0.284645
1.070000	-0.272872	0.102096	0.374969	0.098598	-0.374031	0.275433
1.075000	-0.268225	0.099835	0.368061	0.097220	-0.367360	0.270140
1.080000	-0.263723	0.097880	0.361604	0.095749	-0.361033	0.265283
1.085000	-0.259454	0.095036	0.354490	0.094927	-0.354461	0.259534
1.090000	-0.254590	0.091679	0.346269	0.094057	-0.346906	0.252850
1.095000	-0.248407	0.088534	0.336941	0.092302	-0.337951	0.245648
1.100000	-0.240761	0.086055	0.326816	0.089320	-0.327691	0.238371
1.105000	-0.232495	0.084257	0.316753	0.085585	-0.317108	0.231523
1.110000	-0.224471	0.083010	0.307481	0.081672	-0.307122	0.225450
1.115000	-0.216725	0.082273	0.298998	0.077626	-0.297752	0.220127
1.120000	-0.209353	0.081975	0.291328	0.073541	-0.289068	0.215527
1.125000	-0.202707	0.081983	0.284690	0.069700	-0.281399	0.211699
1.130000	-0.196984	0.082017	0.279001	0.066376	-0.274810	0.208434
1.135000	-0.191575	0.081264	0.272840	0.063688	-0.268130	0.204442
1.140000	-0.185873	0.079028	0.264901	0.061687	-0.260254	0.198567
1.145000	-0.180003	0.075558	0.255561	0.060302	-0.251473	0.191171
1.150000	-0.174073	0.071816	0.245890	0.059038	-0.242466	0.183428
1.155000	-0.167639	0.068504	0.236143	0.057235	-0.233123	0.175888
1.160000	-0.160901	0.065963	0.226863	0.054812	-0.223875	0.169063
1.165000	-0.154577	0.064281	0.218858	0.052132	-0.215602	0.163470
1.170000	-0.148866	0.063274	0.212140	0.049416	-0.208427	0.159011
1.175000	-0.143221	0.062716	0.205938	0.046480	-0.201587	0.155108
1.180000	-0.137272	0.062412	0.199685	0.043220	-0.194542	0.151322
1.185000	-0.130533	0.062039	0.192572	0.039545	-0.186545	0.147000
1.190000	-0.123066	0.061670	0.184736	0.035447	-0.177710	0.142263
1.195000	-0.115262	0.061469	0.176731	0.031057	-0.168582	0.137525
1.200000	-0.107155	0.061419	0.168574	0.026406	-0.159192	0.132786
1.205000	-0.099018	0.061456	0.160474	0.021686	-0.149818	0.128131
1.210000	-0.090850	0.061667	0.152516	0.016849	-0.140507	0.123659
1.215000	-0.082159	0.062064	0.144223	0.011601	-0.130701	0.119100
1.220000	-0.072577	0.062380	0.134958	0.005887	-0.119820	0.113933
1.225000	-0.062609	0.062288	0.124897	0.000186	-0.108257	0.108071
1.230000	-0.052375	0.061381	0.113757	-0.005200	-0.095916	0.101116
1.235000	-0.041413	0.059509	0.100922	-0.010447	-0.082178	0.092625
1.240000	-0.029843	0.056626	0.086469	-0.015463	-0.067153	0.082616
1.245000	-0.018017	0.052917	0.070934	-0.020150	-0.051356	0.071505
1.250000	-0.006360	0.048312	0.054672	-0.024221	-0.035236	0.059458
1.255000	0.005638	0.043547	0.037908	-0.028397	-0.018631	0.047028
1.260000	0.019073	0.040581	0.021508	-0.034442	-0.001406	0.035847
1.265000	0.034442	0.040801	0.006359	-0.043442	0.016214	0.027228
1.270000	0.051599	0.044364	-0.007235	-0.055404	0.033967	0.021436
1.275000	0.069930	0.051134	-0.018795	-0.069896	0.051225	0.018671
1.280000	0.088894	0.060055	-0.028839	-0.085996	0.067974	0.018023
1.285000	0.107769	0.069900	-0.037869	-0.102577	0.084084	0.018493
1.290000	0.125308	0.080001	-0.045307	-0.118535	0.098504	0.020030
1.295000	0.140321	0.089690	-0.050631	-0.132796	0.110246	0.022551
1.300000	0.152617	0.098495	-0.054122	-0.144979	0.119360	0.025619
1.305000	0.161628	0.106567	-0.055061	-0.154843	0.125105	0.029737
1.310000	0.165595	0.114311	-0.051284	-0.161603	0.125215	0.036388
1.315000	0.162519	0.121682	-0.040836	-0.164083	0.117407	0.046676
1.320000	0.150674	0.126876	-0.023797	-0.160243	0.100731	0.059513
1.325000	0.129536	0.127614	-0.001923	-0.148466	0.075898	0.072568
1.330000	0.100466	0.122412	0.021946	-0.128678	0.045334	0.083345
1.335000	0.066498	0.111273	0.044775	-0.102636	0.012542	0.090094
1.340000	0.031134	0.095211	0.064077	-0.072946	-0.019019	0.091965
1.345000	-0.002994	0.076473	0.079467	-0.042423	-0.047609	0.090032
1.350000	-0.034156	0.057609	0.091765	-0.013541	-0.072700	0.086241
1.355000	-0.061509	0.040205	0.101713	0.012300	-0.094236	0.081936
1.360000	-0.084839	0.025216	0.110055	0.034423	-0.112522	0.078099
1.365000	-0.104160	0.013506	0.117666	0.052339	-0.128072	0.075732
1.370000	-0.120193	0.004818	0.125011	0.066612	-0.141569	0.074956
1.375000	-0.133925	-0.002482	0.131442	0.078755	-0.153209	0.074455
1.380000	-0.145809	-0.009409	0.136400	0.089615	-0.162933	0.073318
1.385000	-0.156203	-0.016218	0.139985	0.099548	-0.171004	0.071457
1.390000	-0.165135	-0.022867	0.142268	0.108543	-0.177479	0.068936
1.395000	-0.172384	-0.029619	0.142765	0.116627	-0.181952	0.065325
1.400000	-0.178249	-0.036602	0.141646	0.124044	-0.184691	0.060647
1.405000	-0.182850	-0.043738	0.139112	0.130820	-0.185884	0.055064
1.410000	-0.186307	-0.050993	0.135314	0.137005	-0.185687	0.048683
1.415000	-0.188852	-0.057619	0.131233	0.142300	-0.184801	0.042501
1.420000	-0.190521	-0.062730	0.127791	0.146215	-0.183778	0.037563
1.425000	-0.191350	-0.066006	0.125344	0.148584	-0.182843	0.034259
1.430000	-0.191351	-0.067674	0.123678	0.149548	-0.181882	0.032334
1.435000	-0.190629	-0.068159	0.122470	0.149411	-0.180768	0.031357
1.440000	-0.189470	-0.067895	0.121575	0.148590	-0.179582	0.030992
1.445000	-0.188165	-0.067251	0.120914	0.147465	-0.178447	0.030982
1.450000	-0.186865	-0.066514	0.120350	0.146288	-0.177371	0.031082
1.455000	-0.185562	-0.065878	0.119684	0.145169	-0.176233	0.031065
1.460000	-0.184213	-0.065432	0.118781	0.144132	-0.174933	0.030801
1.465000	-0.182862	-0.065092	0.117770	0.143156	-0.173570	0.030413
1.470000	-0.181524	-0.064785	0.116739	0.142207	-0.172203	0.029996
1.475000	-0.180135	-0.064472	0.115663	0.141224	-0.170779	0.029555
1.480000	-0.178690	-0.064135	0.114555	0.140195	-0.169305	0.029110
1.485000	-0.177157	-0.063834	0.113323	0.139136	-0.167708	0.028572
1.490000	-0.175560	-0.063577	0.111983	0.138066	-0.166013	0.027947
1.495000	-0.174034	-0.063319	0.110715	0.137036	-0.164400	0.027364
1.500000	-0.172684	-0.063073	0.109611	0.136114	-0.162983	0.026869
1.505000	-0.171533	-0.062900	0.108633	0.135350	-0.161754	0.026404
1.510000	-0.170459	-0.062789	0.107670	0.134666	-0.160577	0.025912
1.515000	-0.169332	-0.062680	0.106652	0.133952	-0.159340	0.025388
1.520000	-0.168082	-0.062491	0.105591	0.133122	-0.158006	0.024884
1.525000	-0.166725	-0.062159	0.104566	0.132146	-0.156630	0.024484
1.530000	-0.165299	-0.061695	0.103604	0.131055	-0.155251	0.024197
1.535000	-0.163826	-0.061231	0.102596	0.129937	-0.153819	0.023882
1.540000	-0.162355	-0.060826	0.101530	0.128854	-0.152354	0.023500
1.545000	-0.160963	-0.060415	0.100548	0.127812	-0.150983	0.023170
1.550000	-0.159665	-0.060040	0.099625	0.126847	-0.149701	0.022855
1.555000	-0.158422	-0.059709	0.098712	0.125938	-0.148456	0.022518
1.560000	-0.157249	-0.059391	0.097858	0.125077	-0.147286	0.022209
1.565000	-0.156057	-0.059070	0.096986	0.124204	-0.146094	0.021891
1.570000	-0.154712	-0.058776	0.095936	0.123257	-0.144711	0.021454
1.575000	-0.153247	-0.058465	0.094782	0.122232	-0.143200	0.020968
1.580000	-0.151762	-0.058092	0.093670	0.121159	-0.141700	0.020541
1.585000	-0.150352	-0.057693	0.092660	0.120115	-0.140303	0.020188
1.590000	-0.149031	-0.057317	0.091714	0.119135	-0.138994	0.019859
1.595000	-0.147723	-0.056948	0.090775	0.118167	-0.137697	0.019530
1.600000	-0.146422	-0.056575	0.089848	0.117200	-0.136411	0.019210
1.605000	-0.145128	-0.056197	0.088931	0.116235	-0.135134	0.018899
1.610000	-0.143818	-0.055825	0.087993	0.115264	-0.133836	0.018572
1.615000	-0.142551	-0.055472	0.087079	0.114329	-0.132577	0.018248
1.620000	-0.141295	-0.055152	0.086143	0.113419	-0.131311	0.017892
1.625000	-0.139988	-0.054824	0.085164	0.112475	-0.129992	0.017517
1.630000	-0.138541	-0.054431	0.084110	0.111412	-0.128547	0.017135
1.635000	-0.136882	-0.053951	0.082931	0.110178	-0.126909	0.016732
1.640000	-0.135223	-0.053567	0.081656	0.108998	-0.125215	0.016217
1.645000	-0.133756	-0.053447	0.080308	0.108082	-0.123590	0.015508
1.650000	-0.132506	-0.053563	0.078943	0.107427	-0.122081	0.014653
1.655000	-0.131421	-0.053694	0.077727	0.106876	-0.120752	0.013876
1.660000	-0.130445	-0.053630	0.076814	0.106276	-0.119661	0.013385
1.665000	-0.129485	-0.053331	0.076154	0.105549	-0.118726	0.013177
1.670000	-0.128543	-0.052934	0.075609	0.104776	-0.117867	0.013092
1.675000	-0.127622	-0.052579	0.075042	0.104039	-0.117008	0.012969
1.680000	-0.126627	-0.052385	0.074241	0.103353	-0.115971	0.012619
1.685000	-0.125492	-0.052335	0.073157	0.102668	-0.114690	0.012022
1.690000	-0.124241	-0.052262	0.071979	0.101904	-0.113287	0.011383
1.695000	-0.122891	-0.052064	0.070827	0.101010	-0.111843	0.010833
1.700000	-0.121523	-0.051741	0.069782	0.100034	-0.110450	0.010416
1.705000	-0.120175	-0.051357	0.068818	0.099034	-0.109115	0.010081
1.710000	-0.118849	-0.050982	0.067867	0.098052	-0.107801	0.009749
1.715000	-0.117536	-0.050618	0.066917	0.097084	-0.106494	0.009410
1.720000	-0.116232	-0.050278	0.065954	0.096134	-0.105185	0.009051
1.725000	-0.114995	-0.049914	0.065081	0.095210	-0.103967	0.008757
1.730000	-0.113803	-0.049520	0.064283	0.094294	-0.102817	0.008523
1.735000	-0.112637	-0.049147	0.063490	0.093406	-0.101687	0.008281
1.740000	-0.111465	-0.048830	0.062635	0.092546	-0.100516	0.007970
1.745000	-0.110248	-0.048621	0.061628	0.091723	-0.099233	0.007510
1.750000	-0.109047	-0.048498	0.060548	0.090959	-0.097916	0.006957
1.755000	-0.107862	-0.048355	0.059507	0.090192	-0.096630	0.006438
1.760000	-0.106665	-0.048076	0.058589	0.089339	-0.095409	0.006070
1.765000	-0.105455	-0.047674	0.057781	0.088409	-0.094244	0.005835
1.770000	-0.104220	-0.047298	0.056922	0.087479	-0.093035	0.005556
1.775000	-0.102950	-0.046984	0.055965	0.086564	-0.091750	0.005185
1.780000	-0.101701	-0.046688	0.055013	0.085672	-0.090478	0.004806
1.785000	-0.100483	-0.046360	0.054123	0.084780	-0.089262	0.004482
1.790000	-0.099268	-0.046015	0.053252	0.083879	-0.088057	0.004178
1.795000	-0.098066	-0.045696	0.052370	0.083002	-0.086855	0.003853
1.800000	-0.096876	-0.045422	0.051453	0.082156	-0.085638	0.003482
1.805000	-0.095742	-0.045178	0.050565	0.081360	-0.084471	0.003110
1.810000	-0.094662	-0.044933	0.049729	0.080595	-0.083364	0.002769
1.815000	-0.093483	-0.044680	0.048803	0.079768	-0.082149	0.002381
1.820000	-0.092126	-0.044409	0.047718	0.078828	-0.080739	0.001910
1.825000	-0.090743	-0.044138	0.046605	0.077874	-0.079298	0.001424
1.830000	-0.089463	-0.043975	0.045488	0.077040	-0.077914	0.000874
1.835000	-0.088266	-0.043906	0.044360	0.076310	-0.076572	0.000262
1.840000	-0.087174	-0.043792	0.043382	0.075614	-0.075377	-0.000237
1.845000	-0.086203	-0.043556	0.042646	0.074916	-0.074391	-0.000525
1.850000	-0.085299	-0.043235	0.042064	0.074209	-0.073533	-0.000676
1.855000	-0.084406	-0.042910	0.041496	0.073506	-0.072689	-0.000817
1.860000	-0.083455	-0.042630	0.040825	0.072795	-0.071753	-0.001042
1.865000	-0.082408	-0.042394	0.040014	0.072055	-0.070681	-0.001374
1.870000	-0.081226	-0.042220	0.039006	0.071272	-0.069416	-0.001856
1.875000	-0.079933	-0.042092	0.037841	0.070451	-0.067997	-0.002455
1.880000	-0.078577	-0.041930	0.036647	0.069575	-0.066524	-0.003051
1.885000	-0.077217	-0.041679	0.035539	0.068645	-0.065100	-0.003545
1.890000	-0.076006	-0.041294	0.034712	0.067724	-0.063923	-0.003800
1.895000	-0.074989	-0.040770	0.034219	0.066834	-0.063051	-0.003783
1.900000	-0.074055	-0.040239	0.033816	0.065987	-0.062279	-0.003708
1.905000	-0.073075	-0.039870	0.033205	0.065209	-0.061361	-0.003848
1.910000	-0.072036	-0.039688	0.032348	0.064504	-0.060266	-0.004238
1.915000	-0.070955	-0.039586	0.031370	0.063821	-0.059077	-0.004743
1.920000	-0.069785	-0.039434	0.030351	0.063058	-0.057814	-0.005244
1.925000	-0.068531	-0.039222	0.029309	0.062211	-0.056488	-0.005723
1.930000	-0.067310	-0.038940	0.028370	0.061343	-0.055241	-0.006102
1.935000	-0.066188	-0.038645	0.027543	0.060525	-0.054115	-0.006410
1.940000	-0.065163	-0.038390	0.026772	0.059786	-0.053078	-0.006708
1.945000	-0.064174	-0.038180	0.025994	0.059094	-0.052058	-0.007036
1.950000	-0.063125	-0.038032	0.025093	0.058403	-0.050933	-0.007471
1.955000	-0.062034	-0.037913	0.024121	0.057705	-0.049742	-0.007963
1.960000	-0.061004	-0.037787	0.023216	0.057037	-0.048624	-0.008413
1.965000	-0.060027	-0.037605	0.022422	0.056368	-0.047602	-0.008766
1.970000	-0.059039	-0.037347	0.021692	0.055649	-0.046610	-0.009038
1.975000	-0.058006	-0.037015	0.020991	0.054861	-0.045609	-0.009251
1.980000	-0.056876	-0.036669	0.020207	0.054008	-0.044504	-0.009504
1.985000	-0.055610	-0.036357	0.019254	0.053097	-0.043223	-0.009874
1.990000	-0.054267	-0.036005	0.018262	0.052119	-0.041875	-0.010244
1.995000	-0.053048	-0.035565	0.017483	0.051161	-0.040721	-0.010440
2.000000	-0.052049	-0.035050	0.017000	0.050287	-0.039866	-0.010421
2.005000	-0.051167	-0.034487	0.016680	0.049452	-0.039171	-0.010281
2.010000	-0.050243	-0.033894	0.016349	0.048577	-0.038447	-0.010130
2.015000	-0.049147	-0.033379	0.015769	0.047647	-0.037479	-0.010167
2.020000	-0.047904	-0.033001	0.014903	0.046710	-0.036262	-0.010449
2.025000	-0.046699	-0.032712	0.013986	0.045848	-0.035036	-0.010811
2.030000	-0.045638	-0.032466	0.013172	0.045093	-0.033954	-0.011139
2.035000	-0.044688	-0.032280	0.012408	0.044437	-0.032965	-0.011473
2.040000	-0.043815	-0.032183	0.011632	0.043877	-0.032012	-0.011865
2.045000	-0.043013	-0.032132	0.010881	0.043385	-0.031115	-0.012269
2.050000	-0.042191	-0.032102	0.010089	0.042893	-0.030184	-0.012709
2.055000	-0.041297	-0.032036	0.009261	0.042338	-0.029189	-0.013149
2.060000	-0.040390	-0.031844	0.008546	0.041704	-0.028253	-0.013451
2.065000	-0.039476	-0.031536	0.007940	0.040998	-0.027376	-0.013623
2.070000	-0.038524	-0.031255	0.007268	0.040287	-0.026438	-0.013849
2.075000	-0.037560	-0.031039	0.006520	0.039606	-0.025450	-0.014156
2.080000	-0.036552	-0.030809	0.005743	0.038891	-0.024419	-0.014472
2.085000	-0.035486	-0.030532	0.004954	0.038115	-0.023348	-0.014768
2.090000	-0.034394	-0.030197	0.004197	0.037292	-0.022281	-0.015011
2.095000	-0.033371	-0.029836	0.003535	0.036493	-0.021308	-0.015185
2.100000	-0.032482	-0.029522	0.002961	0.035798	-0.020463	-0.015335
2.105000	-0.031616	-0.029294	0.002322	0.035166	-0.019594	-0.015572
2.110000	-0.030664	-0.029120	0.001543	0.034516	-0.018595	-0.015922
2.115000	-0.029627	-0.028988	0.000639	0.033841	-0.017474	-0.016367
2.120000	-0.028532	-0.028914	-0.000382	0.033167	-0.016253	-0.016914
2.125000	-0.027455	-0.028846	-0.001391	0.032505	-0.015048	-0.017457
2.130000	-0.026488	-0.028642	-0.002154	0.031829	-0.014049	-0.017780
2.135000	-0.025572	-0.028341	-0.002769	0.031126	-0.013166	-0.017961
2.140000	-0.024647	-0.028024	-0.003377	0.030409	-0.012280	-0.018129
2.145000	-0.023666	-0.027677	-0.004011	0.029643	-0.011348	-0.018295
2.150000	-0.022587	-0.027331	-0.004745	0.028820	-0.010301	-0.018519
2.155000	-0.021492	-0.027063	-0.005572	0.028033	-0.009192	-0.018842
2.160000	-0.020426	-0.026852	-0.006426	0.027295	-0.008083	-0.019213
2.165000	-0.019371	-0.026637	-0.007266	0.026563	-0.006989	-0.019574
2.170000	-0.018304	-0.026447	-0.008144	0.025837	-0.005866	-0.019971
2.175000	-0.017266	-0.026297	-0.009031	0.025151	-0.004755	-0.020396
2.180000	-0.016358	-0.026108	-0.009750	0.024517	-0.003815	-0.020703
2.185000	-0.015540	-0.025815	-0.010274	0.023876	-0.003040	-0.020836
2.190000	-0.014692	-0.025371	-0.010680	0.023130	-0.002316	-0.020814
2.195000	-0.013808	-0.024841	-0.011033	0.022314	-0.001602	-0.020712
2.200000	-0.012993	-0.024383	-0.011390	0.021579	-0.000926	-0.020653
2.205000	-0.012248	-0.024135	-0.011887	0.021006	-0.000208	-0.020797
2.210000	-0.011518	-0.024069	-0.012551	0.020546	0.000596	-0.021143
2.215000	-0.010737	-0.024022	-0.013285	0.020068	0.001471	-0.021539
2.220000	-0.009867	-0.023918	-0.014051	0.019506	0.002416	-0.021922
2.225000	-0.008933	-0.023757	-0.014825	0.018874	0.003402	-0.022275
2.230000	-0.007923	-0.023570	-0.015647	0.018182	0.004459	-0.022642
2.235000	-0.006921	-0.023393	-0.016473	0.017502	0.005515	-0.023017
2.240000	-0.005981	-0.023198	-0.017217	0.016847	0.006487	-0.023334
2.245000	-0.005059	-0.022922	-0.017863	0.016155	0.007392	-0.023547
2.250000	-0.004059	-0.022642	-0.018583	0.015416	0.008385	-0.023801
2.255000	-0.002974	-0.022435	-0.019461	0.014670	0.009519	-0.024189
2.260000	-0.001859	-0.022236	-0.020377	0.013911	0.010692	-0.024602
2.265000	-0.000753	-0.021897	-0.021144	0.013077	0.011773	-0.024850
2.270000	0.000278	-0.021443	-0.021722	0.012220	0.012702	-0.024921
2.275000	0.001177	-0.020949	-0.022126	0.011416	0.013454	-0.024869
2.280000	0.001966	-0.020576	-0.022542	0.010745	0.014150	-0.024895
2.285000	0.002746	-0.020814	-0.023560	0.010432	0.015187	-0.025619
2.290000	0.003573	-0.021697	-0.025270	0.010464	0.016652	-0.027116
2.295000	0.004582	-0.022014	-0.026596	0.010065	0.018001	-0.028065
2.300000	0.006473	-0.020326	-0.026799	0.007998	0.019209	-0.027207
2.305000	0.010242	-0.016268	-0.026510	0.003479	0.021219	-0.024698
2.310000	0.016293	-0.009597	-0.025890	-0.003866	0.024354	-0.020488
2.315000	0.023957	0.000162	-0.023795	-0.013925	0.027569	-0.013645
2.320000	0.032761	0.012490	-0.020271	-0.026126	0.030618	-0.004492
2.325000	0.042313	0.025902	-0.016411	-0.039384	0.033904	0.005480
2.330000	0.051256	0.038792	-0.012464	-0.051989	0.036789	0.015201
2.335000	0.058207	0.049140	-0.009067	-0.061977	0.038841	0.023136
2.340000	0.062051	0.055657	-0.006394	-0.067959	0.039516	0.028442
2.345000	0.062489	0.057835	-0.004654	-0.069469	0.038765	0.030704
2.350000	0.060074	0.055593	-0.004480	-0.066780	0.037270	0.029510
2.355000	0.055323	0.048733	-0.006590	-0.060077	0.035745	0.024332
2.360000	0.048594	0.037396	-0.011198	-0.049646	0.034521	0.015125
2.365000	0.040707	0.023312	-0.017395	-0.036962	0.033545	0.003417
2.370000	0.032976	0.009276	-0.023700	-0.024394	0.032722	-0.008328
2.375000	0.026606	-0.002307	-0.028912	-0.014029	0.032053	-0.018024
2.380000	0.022242	-0.010345	-0.032587	-0.006869	0.031656	-0.024787
2.385000	0.019909	-0.014983	-0.034892	-0.002844	0.031639	-0.028795
2.390000	0.019121	-0.017105	-0.036226	-0.001164	0.031955	-0.030790
2.395000	0.019283	-0.017697	-0.036980	-0.000916	0.032483	-0.031568
2.400000	0.020022	-0.017508	-0.037530	-0.001451	0.033228	-0.031777
2.405000	0.021014	-0.017062	-0.038077	-0.002282	0.034116	-0.031834
2.410000	0.022021	-0.016645	-0.038666	-0.003104	0.035038	-0.031934
2.415000	0.022973	-0.016310	-0.039283	-0.003847	0.035944	-0.032097
2.420000	0.023897	-0.016045	-0.039942	-0.004534	0.036857	-0.032324
2.425000	0.024804	-0.015866	-0.040669	-0.005160	0.037801	-0.032641
2.430000	0.025737	-0.015795	-0.041532	-0.005740	0.038838	-0.033098
2.435000	0.026485	-0.016332	-0.042818	-0.005862	0.040012	-0.034150
2.440000	0.024881	-0.022658	-0.047540	-0.001283	0.041812	-0.040529
2.445000	0.015456	-0.045893	-0.061350	0.017573	0.044344	-0.061917
2.450000	-0.004177	-0.095364	-0.091187	0.057470	0.050236	-0.107705
2.455000	-0.023251	-0.172003	-0.148752	0.112730	0.072458	-0.185188
2.460000	-0.014221	-0.264533	-0.250311	0.160939	0.136307	-0.297245
2.465000	0.052421	-0.348188	-0.400609	0.170761	0.261557	-0.432318
2.470000	0.187342	-0.391426	-0.578767	0.117828	0.442313	-0.560141
2.475000	0.372493	-0.367871	-0.740364	-0.002668	0.642508	-0.639840
2.480000	0.564664	-0.267797	-0.832461	-0.171397	0.806630	-0.635234
2.485000	0.715582	-0.100819	-0.816401	-0.354934	0.884490	-0.529557
2.490000	0.792835	0.106266	-0.686569	-0.519096	0.854134	-0.335038
2.495000	0.789728	0.315618	-0.474110	-0.638171	0.729676	-0.091505
2.500000	0.720964	0.489260	-0.231704	-0.698722	0.550022	0.148700
2.505000	0.609818	0.597872	-0.011946	-0.697260	0.358976	0.338284
2.510000	0.479781	0.627994	0.148213	-0.639574	0.191431	0.448143
2.515000	0.350830	0.586784	0.235954	-0.541331	0.066324	0.475008
2.520000	0.237497	0.498286	0.260789	-0.424805	-0.013448	0.438252
2.525000	0.147754	0.393040	0.245286	-0.312228	-0.056310	0.368537
2.530000	0.083767	0.296700	0.212933	-0.219663	-0.074574	0.294237
2.535000	0.043332	0.223521	0.180189	-0.154068	-0.079014	0.233082
2.540000	0.021934	0.176412	0.154477	-0.114515	-0.076524	0.191039
2.545000	0.014002	0.150991	0.136989	-0.095258	-0.071007	0.166265
2.550000	0.013936	0.140039	0.126104	-0.088897	-0.064760	0.153657
2.555000	0.017287	0.136301	0.119014	-0.088674	-0.058732	0.147406
2.560000	0.021257	0.134470	0.113212	-0.089909	-0.053090	0.142999
2.565000	0.024834	0.132162	0.107328	-0.090641	-0.047628	0.138270
2.570000	0.028532	0.129079	0.100546	-0.090997	-0.041577	0.132574
2.575000	0.033132	0.125824	0.092691	-0.091773	-0.034386	0.126160
2.580000	0.039198	0.123029	0.083831	-0.093662	-0.025769	0.119430
2.585000	0.046357	0.120949	0.074593	-0.096594	-0.016302	0.112896
2.590000	0.053610	0.119543	0.065934	-0.099970	-0.007115	0.107085
2.595000	0.060650	0.118684	0.058034	-0.103539	0.001510	0.102029
2.600000	0.067478	0.118288	0.050810	-0.107252	0.009623	0.097629
2.605000	0.073712	0.118179	0.044468	-0.110788	0.016884	0.093904
2.610000	0.078967	0.117864	0.038896	-0.113640	0.023135	0.090505
2.615000	0.083545	0.116899	0.033354	-0.115727	0.028978	0.086748
2.620000	0.088251	0.114623	0.026372	-0.117130	0.035726	0.081404
2.625000	0.093212	0.110942	0.017729	-0.117869	0.043580	0.074288
2.630000	0.098197	0.106648	0.008451	-0.118267	0.051815	0.066452
2.635000	0.103338	0.102679	-0.000659	-0.118944	0.060042	0.058902
2.640000	0.108749	0.099679	-0.009070	-0.120336	0.068023	0.052313
2.645000	0.114189	0.097831	-0.016358	-0.122410	0.075371	0.047039
2.650000	0.119355	0.096936	-0.022419	-0.124875	0.081853	0.043023
2.655000	0.124579	0.096665	-0.027914	-0.127735	0.088042	0.039693
2.660000	0.130155	0.096680	-0.033476	-0.130963	0.094473	0.036491
2.665000	0.136208	0.096720	-0.039488	-0.134481	0.101438	0.033043
2.670000	0.142791	0.096619	-0.046172	-0.138223	0.109098	0.029126
2.675000	0.149606	0.096386	-0.053221	-0.142023	0.117102	0.024921
2.680000	0.156604	0.096111	-0.060493	-0.145905	0.125341	0.020565
2.685000	0.163651	0.095556	-0.068095	-0.149653	0.133798	0.015855
2.690000	0.170658	0.094701	-0.075957	-0.153206	0.142383	0.010822
2.695000	0.178076	0.093956	-0.084119	-0.157058	0.151378	0.005680
2.700000	0.186444	0.093612	-0.092832	-0.161690	0.161240	0.000450
2.705000	0.195427	0.093717	-0.101710	-0.166937	0.171552	-0.004615
2.710000	0.204532	0.093728	-0.110804	-0.172201	0.182059	-0.009859
2.715000	0.214213	0.092981	-0.121232	-0.177359	0.193670	-0.016311
2.720000	0.224762	0.091109	-0.133653	-0.182368	0.206931	-0.024562
2.725000	0.235940	0.088103	-0.147837	-0.187087	0.221574	-0.034487
2.730000	0.247196	0.083951	-0.163245	-0.191188	0.236968	-0.045780
2.735000	0.258396	0.078886	-0.179510	-0.194730	0.252825	-0.058095
2.740000	0.270491	0.074488	-0.196003	-0.199174	0.269331	-0.070157
2.745000	0.284280	0.072777	-0.211504	-0.206147	0.286241	-0.080094
2.750000	0.299991	0.074692	-0.225299	-0.216324	0.303276	-0.086953
2.755000	0.317195	0.079922	-0.237273	-0.229276	0.320122	-0.090847
2.760000	0.335263	0.087677	-0.247585	-0.244184	0.336507	-0.092323
2.765000	0.353472	0.096857	-0.256615	-0.259997	0.352233	-0.092236
2.770000	0.370938	0.106729	-0.264209	-0.275781	0.366702	-0.090921
2.775000	0.386393	0.116672	-0.269720	-0.290445	0.378807	-0.088362
2.780000	0.399160	0.125913	-0.273247	-0.303151	0.388214	-0.085064
2.785000	0.408885	0.134312	-0.274573	-0.313615	0.394594	-0.080979
2.790000	0.414354	0.142138	-0.272215	-0.321291	0.396391	-0.075100
2.795000	0.413724	0.149830	-0.263894	-0.325368	0.391223	-0.065855
2.800000	0.405205	0.156431	-0.248774	-0.324261	0.377575	-0.053314
2.805000	0.387428	0.159611	-0.227817	-0.315833	0.355211	-0.039379
2.810000	0.360863	0.157233	-0.203631	-0.299123	0.325911	-0.026788
2.815000	0.327966	0.148559	-0.179407	-0.275121	0.292931	-0.017810
2.820000	0.292290	0.134237	-0.158053	-0.246255	0.260005	-0.013750
2.825000	0.256837	0.116047	-0.140790	-0.215284	0.229570	-0.014286
2.830000	0.223555	0.096561	-0.126994	-0.184819	0.202389	-0.017570
2.835000	0.193723	0.077931	-0.115792	-0.156839	0.178699	-0.021859
2.840000	0.167735	0.061540	-0.106195	-0.132372	0.158153	-0.025781
2.845000	0.145864	0.048339	-0.097525	-0.112123	0.140520	-0.028397
2.850000	0.127843	0.038547	-0.089296	-0.096065	0.125365	-0.029300
2.855000	0.112635	0.030819	-0.081817	-0.082823	0.112267	-0.029444
2.860000	0.099417	0.023602	-0.075815	-0.071025	0.101170	-0.030145
2.865000	0.087613	0.016453	-0.071159	-0.060082	0.091667	-0.031585
2.870000	0.076974	0.009410	-0.067563	-0.049874	0.083449	-0.033575
2.875000	0.067894	0.002554	-0.065339	-0.040673	0.076922	-0.036249
2.880000	0.060506	-0.004342	-0.064849	-0.032426	0.072374	-0.039947
2.885000	0.054492	-0.011301	-0.065793	-0.024936	0.069446	-0.044511
2.890000	0.049797	-0.018502	-0.068299	-0.018068	0.068183	-0.050115
2.895000	0.046122	-0.025511	-0.071633	-0.011900	0.067986	-0.056086
2.900000	0.043334	-0.031331	-0.074664	-0.006930	0.068126	-0.061196
2.905000	0.041440	-0.035338	-0.076777	-0.003523	0.068253	-0.064730
2.910000	0.040341	-0.037526	-0.077867	-0.001625	0.068247	-0.066623
2.915000	0.039901	-0.038402	-0.078303	-0.000866	0.068245	-0.067380
2.920000	0.039988	-0.038570	-0.078558	-0.000819	0.068443	-0.067624
2.925000	0.040430	-0.038397	-0.078827	-0.001173	0.068853	-0.067679
2.930000	0.041015	-0.038101	-0.079116	-0.001682	0.069358	-0.067676
2.935000	0.041608	-0.037826	-0.079434	-0.002183	0.069883	-0.067700
2.940000	0.042177	-0.037591	-0.079768	-0.002647	0.070405	-0.067758
2.945000	0.042699	-0.037319	-0.080018	-0.003106	0.070851	-0.067745
2.950000	0.043271	-0.036973	-0.080243	-0.003636	0.071311	-0.067675
2.955000	0.043889	-0.036571	-0.080460	-0.004225	0.071793	-0.067568
2.960000	0.044501	-0.036201	-0.080701	-0.004792	0.072285	-0.067493
2.965000	0.045176	-0.035927	-0.081103	-0.005340	0.072907	-0.067567
2.970000	0.045960	-0.035743	-0.081703	-0.005899	0.073707	-0.067807
2.975000	0.046792	-0.035498	-0.082290	-0.006521	0.074526	-0.068005
2.980000	0.047672	-0.035112	-0.082784	-0.007251	0.075319	-0.068067
2.985000	0.048535	-0.034764	-0.083300	-0.007951	0.076115	-0.068164
2.990000	0.049268	-0.034630	-0.083899	-0.008451	0.076884	-0.068433
2.995000	0.049903	-0.034637	-0.084541	-0.008814	0.077621	-0.068807
3.000000	0.050531	-0.034653	-0.085184	-0.009167	0.078355	-0.069188
3.005000	0.051211	-0.034557	-0.085768	-0.009615	0.079085	-0.069470
3.010000	0.051914	-0.034271	-0.086185	-0.010186	0.079731	-0.069545
3.015000	0.052609	-0.033877	-0.086486	-0.010815	0.080306	-0.069491
3.020000	0.053307	-0.033544	-0.086851	-0.011410	0.080920	-0.069510
3.025000	0.053984	-0.033269	-0.087253	-0.011960	0.081543	-0.069583
3.030000	0.054563	-0.032933	-0.087496	-0.012488	0.082018	-0.069530
3.035000	0.054998	-0.032596	-0.087595	-0.012934	0.082326	-0.069392
3.040000	0.055364	-0.032278	-0.087642	-0.013329	0.082565	-0.069236
3.045000	0.055824	-0.031936	-0.087760	-0.013792	0.082898	-0.069106
3.050000	0.056457	-0.031639	-0.088096	-0.014328	0.083458	-0.069129
3.055000	0.057145	-0.031443	-0.088588	-0.014839	0.084139	-0.069300
3.060000	0.057744	-0.031321	-0.089064	-0.015255	0.084760	-0.069504
3.065000	0.058301	-0.031239	-0.089541	-0.015624	0.085357	-0.069732
3.070000	0.058965	-0.031159	-0.090124	-0.016054	0.086077	-0.070023
3.075000	0.059663	-0.031018	-0.090680	-0.016538	0.086800	-0.070262
3.080000	0.060259	-0.030801	-0.091060	-0.017007	0.087364	-0.070357
3.085000	0.060803	-0.030600	-0.091403	-0.017437	0.087876	-0.070439
3.090000	0.061341	-0.030444	-0.091785	-0.017838	0.088407	-0.070569
3.095000	0.061859	-0.030266	-0.092125	-0.018240	0.088902	-0.070663
3.100000	0.062405	-0.030093	-0.092498	-0.018655	0.089434	-0.070778
3.105000	0.063046	-0.029950	-0.092996	-0.019108	0.090091	-0.070983
3.110000	0.063827	-0.029750	-0.093576	-0.019674	0.090877	-0.071202
3.115000	0.064997	-0.029253	-0.094250	-0.020637	0.091941	-0.071304
3.120000	0.066343	-0.028586	-0.094929	-0.021799	0.093111	-0.071311
3.125000	0.067317	-0.028165	-0.095481	-0.022604	0.093991	-0.071387
3.130000	0.067778	-0.028083	-0.095861	-0.022918	0.094477	-0.071559
3.135000	0.067957	-0.028220	-0.096178	-0.022942	0.094763	-0.071821
3.140000	0.068056	-0.028467	-0.096523	-0.022857	0.095020	-0.072163
3.145000	0.068222	-0.028686	-0.096908	-0.022826	0.095338	-0.072512
3.150000	0.068571	-0.028774	-0.097345	-0.022977	0.095792	-0.072815
3.155000	0.069082	-0.028722	-0.097804	-0.023301	0.096352	-0.073050
3.160000	0.069715	-0.028550	-0.098265	-0.023766	0.096983	-0.073217
3.165000	0.070478	-0.028255	-0.098733	-0.024377	0.097694	-0.073317
3.170000	0.071211	-0.027968	-0.099179	-0.024966	0.098375	-0.073409
3.175000	0.071775	-0.027801	-0.099577	-0.025388	0.098930	-0.073542
3.180000	0.072260	-0.027692	-0.099952	-0.025732	0.099427	-0.073695
3.185000	0.072798	-0.027505	-0.100304	-0.026150	0.099940	-0.073790
3.190000	0.073463	-0.027203	-0.100666	-0.026708	0.100533	-0.073825
3.195000	0.074172	-0.026899	-0.101071	-0.027293	0.101176	-0.073883
3.200000	0.074826	-0.026701	-0.101527	-0.027785	0.101818	-0.074032
3.205000	0.075378	-0.026635	-0.102013	-0.028142	0.102417	-0.074275
3.210000	0.075827	-0.026631	-0.102458	-0.028404	0.102933	-0.074530
3.215000	0.076203	-0.026611	-0.102813	-0.028632	0.103355	-0.074723
3.220000	0.076558	-0.026508	-0.103066	-0.028897	0.103706	-0.074810
3.225000	0.077022	-0.026246	-0.103268	-0.029316	0.104091	-0.074775
3.230000	0.077608	-0.025889	-0.103498	-0.029860	0.104562	-0.074701
3.235000	0.078217	-0.025543	-0.103760	-0.030411	0.105064	-0.074653
3.240000	0.078767	-0.025209	-0.103975	-0.030922	0.105506	-0.074584
3.245000	0.079324	-0.024905	-0.104229	-0.031419	0.105974	-0.074555
3.250000	0.079983	-0.024652	-0.104634	-0.031945	0.106589	-0.074643
3.255000	0.080681	-0.024379	-0.105060	-0.032505	0.107237	-0.074732
3.260000	0.081371	-0.024012	-0.105383	-0.033116	0.107822	-0.074706
3.265000	0.082142	-0.023560	-0.105702	-0.033823	0.108452	-0.074629
3.270000	0.082893	-0.023126	-0.106019	-0.034506	0.109068	-0.074562
3.275000	0.083473	-0.022807	-0.106280	-0.035025	0.109553	-0.074528
3.280000	0.083888	-0.022590	-0.106479	-0.035390	0.109908	-0.074518
3.285000	0.084291	-0.022460	-0.106751	-0.035698	0.110298	-0.074600
3.290000	0.084797	-0.022413	-0.107209	-0.036017	0.110855	-0.074837
3.295000	0.085437	-0.022354	-0.107791	-0.036421	0.111560	-0.075139
3.300000	0.086127	-0.022167	-0.108294	-0.036928	0.112249	-0.075322
3.305000	0.086698	-0.021920	-0.108618	-0.037400	0.112766	-0.075366
3.310000	0.087153	-0.021681	-0.108834	-0.037801	0.113153	-0.075353
3.315000	0.087599	-0.021480	-0.109080	-0.038174	0.113553	-0.075379
3.320000	0.088041	-0.021424	-0.109465	-0.038462	0.114030	-0.075568
3.325000	0.088437	-0.021423	-0.109860	-0.038691	0.114486	-0.075796
3.330000	0.088827	-0.021333	-0.110160	-0.038968	0.114886	-0.075918
3.335000	0.089232	-0.021151	-0.110384	-0.039306	0.115248	-0.075942
3.340000	0.089640	-0.020918	-0.110558	-0.039676	0.115584	-0.075907
3.345000	0.090054	-0.020675	-0.110729	-0.040056	0.115922	-0.075866
3.350000	0.090528	-0.020404	-0.110932	-0.040486	0.116313	-0.075827
3.355000	0.091097	-0.020120	-0.111217	-0.040979	0.116806	-0.075827
3.360000	0.091708	-0.019839	-0.111547	-0.041494	0.117350	-0.075856
3.365000	0.092331	-0.019611	-0.111942	-0.041985	0.117937	-0.075952
3.370000	0.092915	-0.019464	-0.112378	-0.042407	0.118526	-0.076119
3.375000	0.093413	-0.019311	-0.112724	-0.042783	0.119013	-0.076231
3.380000	0.093809	-0.019145	-0.112954	-0.043107	0.119374	-0.076267
3.385000	0.094211	-0.019015	-0.113226	-0.043414	0.119764	-0.076349
3.390000	0.094702	-0.018937	-0.113639	-0.043743	0.120286	-0.076542
3.395000	0.095252	-0.018863	-0.114115	-0.044103	0.120878	-0.076775
3.400000	0.095837	-0.018761	-0.114598	-0.044500	0.121495	-0.076995
3.405000	0.096424	-0.018678	-0.115102	-0.044887	0.122124	-0.077238
3.410000	0.097011	-0.018596	-0.115607	-0.045273	0.122755	-0.077482
3.415000	0.097570	-0.018406	-0.115977	-0.045705	0.123292	-0.077586
3.420000	0.098063	-0.018095	-0.116158	-0.046170	0.123680	-0.077511
3.425000	0.098443	-0.017712	-0.116155	-0.046610	0.123898	-0.077288
3.430000	0.098795	-0.017357	-0.116152	-0.047018	0.124099	-0.077081
3.435000	0.099218	-0.017115	-0.116333	-0.047402	0.124448	-0.077046
3.440000	0.099735	-0.016981	-0.116716	-0.047778	0.124968	-0.077190
3.445000	0.100332	-0.016866	-0.117198	-0.048189	0.125591	-0.077402
3.450000	0.100996	-0.016740	-0.117736	-0.048645	0.126284	-0.077640
3.455000	0.101638	-0.016594	-0.118232	-0.049100	0.126942	-0.077841
3.460000	0.102143	-0.016372	-0.118516	-0.049520	0.127398	-0.077877
3.465000	0.102512	-0.016110	-0.118622	-0.049884	0.127672	-0.077788
3.470000	0.102832	-0.015935	-0.118767	-0.050170	0.127940	-0.077770
3.475000	0.103174	-0.015887	-0.119061	-0.050395	0.128308	-0.077912
3.480000	0.103502	-0.015917	-0.119419	-0.050568	0.128704	-0.078136
3.485000	0.103824	-0.015947	-0.119771	-0.050736	0.129093	-0.078357
3.490000	0.104179	-0.015863	-0.120042	-0.050989	0.129454	-0.078465
3.495000	0.104593	-0.015620	-0.120213	-0.051368	0.129792	-0.078423
3.500000	0.105102	-0.015277	-0.120379	-0.051861	0.130182	-0.078321
3.505000	0.105670	-0.014922	-0.120592	-0.052393	0.130632	-0.078239
3.510000	0.106214	-0.014617	-0.120832	-0.052883	0.131085	-0.078201
3.515000	0.106733	-0.014380	-0.121113	-0.053320	0.131547	-0.078227
3.520000	0.107187	-0.014231	-0.121418	-0.053668	0.131985	-0.078317
3.525000	0.107576	-0.014208	-0.121783	-0.053906	0.132420	-0.078515
3.530000	0.107965	-0.014263	-0.122228	-0.054099	0.132902	-0.078803
3.535000	0.108410	-0.014311	-0.122721	-0.054328	0.133444	-0.079116
3.540000	0.108902	-0.014256	-0.123158	-0.054644	0.133980	-0.079336
3.545000	0.109420	-0.014109	-0.123529	-0.055028	0.134493	-0.079465
3.550000	0.109930	-0.013957	-0.123886	-0.055410	0.134994	-0.079584
3.555000	0.110361	-0.013745	-0.124105	-0.055781	0.135369	-0.079588
3.560000	0.110739	-0.013412	-0.124151	-0.056192	0.135613	-0.079422
3.565000	0.111077	-0.012986	-0.124064	-0.056633	0.135758	-0.079126
3.570000	0.111336	-0.012561	-0.123896	-0.057028	0.135811	-0.078784
3.575000	0.111516	-0.012178	-0.123694	-0.057353	0.135799	-0.078445
3.580000	0.111704	-0.011916	-0.123620	-0.057612	0.135865	-0.078252
3.585000	0.111955	-0.011806	-0.123760	-0.057821	0.136090	-0.078269
3.590000	0.112260	-0.011754	-0.124013	-0.058027	0.136412	-0.078385
3.595000	0.112630	-0.011730	-0.124361	-0.058254	0.136827	-0.078572
3.600000	0.113074	-0.011741	-0.124815	-0.058505	0.137345	-0.078840
3.605000	0.113514	-0.011739	-0.125253	-0.058760	0.137852	-0.079092
3.610000	0.113900	-0.011748	-0.125648	-0.058977	0.138303	-0.079326
3.615000	0.114302	-0.011752	-0.126054	-0.059208	0.138770	-0.079562
3.620000	0.114755	-0.011708	-0.126462	-0.059494	0.139267	-0.079773
3.625000	0.115213	-0.011549	-0.126761	-0.059850	0.139703	-0.079853
3.630000	0.115666	-0.011229	-0.126895	-0.060297	0.140043	-0.079746
3.635000	0.116134	-0.010868	-0.127002	-0.060775	0.140375	-0.079600
3.640000	0.116621	-0.010554	-0.127174	-0.061238	0.140755	-0.079517
3.645000	0.117187	-0.010305	-0.127492	-0.061708	0.141265	-0.079557
3.650000	0.117853	-0.010152	-0.128005	-0.062181	0.141946	-0.079765
3.655000	0.118537	-0.010076	-0.128613	-0.062620	0.142692	-0.080073
3.660000	0.119052	-0.010040	-0.129092	-0.062938	0.143266	-0.080328
3.665000	0.119337	-0.010002	-0.129339	-0.063124	0.143573	-0.080449
3.670000	0.119501	-0.009898	-0.129399	-0.063280	0.143703	-0.080423
3.675000	0.119706	-0.009770	-0.129476	-0.063471	0.143865	-0.080394
3.680000	0.120045	-0.009650	-0.129695	-0.063737	0.144188	-0.080451
3.685000	0.120450	-0.009491	-0.129941	-0.064062	0.144563	-0.080501
3.690000	0.120828	-0.009280	-0.130107	-0.064402	0.144877	-0.080475
3.695000	0.121188	-0.009056	-0.130244	-0.064739	0.145164	-0.080425
3.700000	0.121591	-0.008822	-0.130413	-0.065107	0.145495	-0.080388
3.705000	0.122097	-0.008581	-0.130677	-0.065539	0.145939	-0.080400
3.710000	0.122711	-0.008303	-0.131013	-0.066054	0.146488	-0.080434
3.715000	0.123363	-0.007938	-0.131301	-0.066640	0.147030	-0.080390
3.720000	0.123914	-0.007547	-0.131461	-0.067185	0.147441	-0.080256
3.725000	0.124246	-0.007199	-0.131445	-0.067577	0.147623	-0.080046
3.730000	0.124416	-0.006946	-0.131362	-0.067821	0.147673	-0.079852
3.735000	0.124606	-0.006767	-0.131373	-0.068035	0.147790	-0.079755
3.740000	0.124925	-0.006598	-0.131523	-0.068316	0.148061	-0.079744
3.745000	0.125379	-0.006412	-0.131791	-0.068686	0.148477	-0.079791
3.750000	0.125910	-0.006250	-0.132161	-0.069086	0.148997	-0.079912
3.755000	0.126430	-0.006176	-0.132606	-0.069429	0.149554	-0.080125
3.760000	0.126878	-0.006125	-0.133003	-0.069717	0.150042	-0.080325
3.765000	0.127198	-0.006153	-0.133351	-0.069885	0.150428	-0.080543
3.770000	0.127420	-0.006583	-0.134003	-0.069765	0.150933	-0.081168
3.775000	0.127698	-0.006890	-0.134588	-0.069748	0.151430	-0.081682
3.780000	0.128484	-0.005781	-0.134265	-0.070842	0.151698	-0.080855
3.785000	0.130823	-0.002642	-0.133464	-0.074005	0.152586	-0.078581
3.790000	0.135546	0.002640	-0.132905	-0.079782	0.154990	-0.075209
3.795000	0.142275	0.010799	-0.131475	-0.088377	0.158050	-0.069672
3.800000	0.150159	0.021966	-0.128193	-0.099377	0.160707	-0.061330
3.805000	0.158946	0.034988	-0.123958	-0.111967	0.163334	-0.051367
3.810000	0.167798	0.048372	-0.119426	-0.124805	0.165829	-0.041023
3.815000	0.175291	0.060079	-0.115212	-0.135891	0.167722	-0.031831
3.820000	0.180041	0.068288	-0.111754	-0.143373	0.168468	-0.025095
3.825000	0.181266	0.072238	-0.109028	-0.146360	0.167601	-0.021241
3.830000	0.179409	0.071760	-0.107649	-0.145012	0.165733	-0.020721
3.835000	0.175072	0.066747	-0.108325	-0.139614	0.163619	-0.024005
3.840000	0.168534	0.056964	-0.111570	-0.130191	0.161718	-0.031527
3.845000	0.160381	0.043526	-0.116855	-0.117726	0.160062	-0.042337
3.850000	0.151923	0.029105	-0.122818	-0.104517	0.158622	-0.054105
3.855000	0.144550	0.016402	-0.128148	-0.092925	0.157443	-0.064517
3.860000	0.139082	0.006970	-0.132112	-0.084323	0.156574	-0.072251
3.865000	0.135601	0.001014	-0.134586	-0.078875	0.155993	-0.077118
3.870000	0.133735	-0.002164	-0.135898	-0.075962	0.155673	-0.079710
3.875000	0.133018	-0.003527	-0.136545	-0.074761	0.155632	-0.080871
3.880000	0.133052	-0.003904	-0.136956	-0.074564	0.155889	-0.081326
3.885000	0.133479	-0.003879	-0.137358	-0.074825	0.156367	-0.081543
3.890000	0.133964	-0.003757	-0.137721	-0.075175	0.156857	-0.081682
3.895000	0.134312	-0.003569	-0.137881	-0.075485	0.157151	-0.081666
3.900000	0.134544	-0.003340	-0.137884	-0.075751	0.157287	-0.081536
3.905000	0.134741	-0.003148	-0.137889	-0.075975	0.157403	-0.081428
3.910000	0.134924	-0.003041	-0.137966	-0.076143	0.157553	-0.081410
3.915000	0.135154	-0.003119	-0.138273	-0.076231	0.157863	-0.081632
3.920000	0.134441	-0.006155	-0.140596	-0.074066	0.158792	-0.084726
3.925000	0.128199	-0.021670	-0.149869	-0.061505	0.160542	-0.099038
3.930000	0.111634	-0.060685	-0.172319	-0.029415	0.163940	-0.134525
3.935000	0.089221	-0.127868	-0.217089	0.022313	0.176848	-0.199161
3.940000	0.082747	-0.217052	-0.299798	0.077541	0.220862	-0.298403
3.945000	0.124080	-0.308080	-0.432159	0.106232	0.321145	-0.427377
3.950000	0.233040	-0.370619	-0.603659	0.079431	0.483068	-0.562499
3.955000	0.402943	-0.374627	-0.777571	-0.016348	0.681570	-0.665222
3.960000	0.598402	-0.303299	-0.901701	-0.170377	0.866084	-0.695707
3.965000	0.770042	-0.159273	-0.929315	-0.352627	0.981124	-0.628496
3.970000	0.877403	0.036792	-0.840611	-0.527811	0.991895	-0.464085
3.975000	0.903695	0.250048	-0.653647	-0.666113	0.899131	-0.233018
3.980000	0.856912	0.441316	-0.415596	-0.749532	0.734682	0.014850
3.985000	0.758457	0.577195	-0.181261	-0.771139	0.542546	0.228593
3.990000	0.632423	0.637316	0.004893	-0.733084	0.362305	0.370779
3.995000	0.500391	0.620999	0.120608	-0.647434	0.219268	0.428167
4.000000	0.379203	0.546838	0.167636	-0.534650	0.122148	0.412502
4.005000	0.279393	0.444319	0.164926	-0.417835	0.066088	0.351748
4.010000	0.205183	0.342122	0.136939	-0.315987	0.039400	0.276586
4.015000	0.155625	0.259213	0.103588	-0.239507	0.030044	0.209463
4.020000	0.126894	0.202518	0.075624	-0.190186	0.029601	0.160586
4.025000	0.113918	0.169828	0.055911	-0.163821	0.033490	0.130330
4.030000	0.111057	0.154510	0.043453	-0.153325	0.039031	0.114294
4.035000	0.113304	0.148980	0.035676	-0.151429	0.044819	0.106611
4.040000	0.117089	0.146884	0.029795	-0.152405	0.050399	0.102006
4.045000	0.120578	0.144726	0.024148	-0.153174	0.055674	0.097500
4.050000	0.123795	0.141572	0.017777	-0.153209	0.061209	0.092000
4.055000	0.127516	0.137807	0.010290	-0.153184	0.067680	0.085504
4.060000	0.132501	0.134209	0.001708	-0.153985	0.075514	0.078472
4.065000	0.138845	0.131481	-0.007364	-0.156073	0.084414	0.071659
4.070000	0.145721	0.129772	-0.015950	-0.159056	0.093341	0.065715
4.075000	0.152532	0.128883	-0.023649	-0.162475	0.101718	0.060757
4.080000	0.159254	0.128529	-0.030725	-0.166151	0.109684	0.056467
4.085000	0.165573	0.128498	-0.037075	-0.169782	0.116998	0.052784
4.090000	0.170963	0.128621	-0.042343	-0.172965	0.123152	0.049812
4.095000	0.175332	0.128560	-0.046772	-0.175452	0.128232	0.047220
4.100000	0.179386	0.127447	-0.051939	-0.177150	0.133555	0.043594
4.105000	0.183703	0.124870	-0.058833	-0.178154	0.140028	0.038126
4.110000	0.188197	0.121288	-0.066908	-0.178681	0.147285	0.031396
4.115000	0.192950	0.117452	-0.075498	-0.179210	0.154988	0.024222
4.120000	0.198167	0.114076	-0.084091	-0.180273	0.162962	0.017312
4.125000	0.203326	0.111562	-0.091764	-0.181801	0.170370	0.011431
4.130000	0.207901	0.109925	-0.097976	-0.183497	0.176598	0.006899
4.135000	0.212275	0.108957	-0.103319	-0.185463	0.182208	0.003255
4.140000	0.216971	0.108420	-0.108551	-0.187865	0.187940	-0.000076
4.145000	0.222120	0.108046	-0.114074	-0.190622	0.194102	-0.003481
4.150000	0.227922	0.107572	-0.120350	-0.193697	0.201075	-0.007378
4.155000	0.234157	0.107032	-0.127126	-0.196986	0.208587	-0.011601
4.160000	0.240643	0.106631	-0.134012	-0.200499	0.216307	-0.015808
4.165000	0.247408	0.106445	-0.140963	-0.204297	0.224226	-0.019929
4.170000	0.254178	0.106279	-0.147899	-0.208110	0.232139	-0.024030
4.175000	0.261015	0.105907	-0.155108	-0.211843	0.240248	-0.028406
4.180000	0.268483	0.105372	-0.163110	-0.215845	0.249180	-0.033335
4.185000	0.276766	0.104905	-0.171861	-0.220358	0.259015	-0.038657
4.190000	0.285308	0.104355	-0.180953	-0.224972	0.269196	-0.044224
4.195000	0.294197	0.103295	-0.190902	-0.229492	0.280072	-0.050580
4.200000	0.303847	0.101460	-0.202387	-0.234004	0.292274	-0.058270
4.205000	0.314137	0.098628	-0.215509	-0.238310	0.305791	-0.067481
4.210000	0.324690	0.094833	-0.229858	-0.242212	0.320168	-0.077957
4.215000	0.335201	0.090067	-0.245134	-0.245528	0.335057	-0.089528
4.220000	0.346348	0.085288	-0.261061	-0.249205	0.350688	-0.101483
4.225000	0.359008	0.082411	-0.276597	-0.254853	0.366966	-0.112113
4.230000	0.373535	0.082796	-0.290739	-0.263462	0.383519	-0.120056
4.235000	0.389707	0.086664	-0.303043	-0.275033	0.399959	-0.124927
4.240000	0.406905	0.093652	-0.313253	-0.288996	0.415783	-0.126787
4.245000	0.424548	0.102571	-0.321978	-0.304332	0.431007	-0.126675
4.250000	0.441940	0.112345	-0.329595	-0.320016	0.445446	-0.125430
4.255000	0.457918	0.122247	-0.335671	-0.334959	0.458179	-0.123220
4.260000	0.471445	0.131503	-0.339942	-0.348112	0.468454	-0.120342
4.265000	0.482228	0.139909	-0.342319	-0.359191	0.476052	-0.116861
4.270000	0.489444	0.147802	-0.341642	-0.367914	0.479827	-0.111913
4.275000	0.491296	0.155627	-0.335669	-0.373502	0.477449	-0.103947
4.280000	0.485840	0.163032	-0.322807	-0.374626	0.466872	-0.092246
4.285000	0.471489	0.167882	-0.303607	-0.369141	0.447502	-0.078361
4.290000	0.448029	0.167725	-0.280304	-0.355506	0.420503	-0.064997
4.295000	0.417043	0.161237	-0.255806	-0.333870	0.388469	-0.054599
4.300000	0.381659	0.148713	-0.232946	-0.306210	0.354842	-0.048632
4.305000	0.345224	0.131538	-0.213686	-0.275259	0.322687	-0.047429
4.310000	0.310207	0.112204	-0.198003	-0.243879	0.293415	-0.049536
4.315000	0.278471	0.093206	-0.185264	-0.214588	0.267738	-0.053150
4.320000	0.250699	0.076011	-0.174688	-0.188626	0.245597	-0.056971
4.325000	0.226937	0.061558	-0.165378	-0.166563	0.226503	-0.059940
4.330000	0.207049	0.050456	-0.156593	-0.148671	0.209949	-0.061278
4.335000	0.190260	0.042045	-0.148215	-0.134121	0.195419	-0.061297
4.340000	0.175714	0.034678	-0.141036	-0.121470	0.182876	-0.061406
4.345000	0.162990	0.027501	-0.135489	-0.109980	0.172327	-0.062347
4.350000	0.151710	0.020391	-0.131319	-0.099362	0.163407	-0.064045
4.355000	0.141919	0.013502	-0.128417	-0.089732	0.156078	-0.066346
4.360000	0.133763	0.006547	-0.127217	-0.081008	0.150677	-0.069669
4.365000	0.126912	-0.000546	-0.127458	-0.072957	0.146860	-0.073903
4.370000	0.121353	-0.007826	-0.129179	-0.065545	0.144645	-0.079100
4.375000	0.116877	-0.015202	-0.132079	-0.058702	0.143735	-0.085033
4.380000	0.113258	-0.021744	-0.135002	-0.052836	0.143333	-0.090497
4.385000	0.110485	-0.026610	-0.137095	-0.048426	0.142941	-0.094515
4.390000	0.108528	-0.029585	-0.138113	-0.045578	0.142398	-0.096820
4.395000	0.107350	-0.030921	-0.138270	-0.044126	0.141809	-0.097682
4.400000	0.106827	-0.031180	-0.138007	-0.043674	0.141355	-0.097680
4.405000	0.106741	-0.030905	-0.137646	-0.043784	0.141097	-0.097313
4.410000	0.106964	-0.030424	-0.137388	-0.044190	0.141077	-0.096887
4.415000	0.107356	-0.029986	-0.137342	-0.044670	0.141276	-0.096606
4.420000	0.107782	-0.029679	-0.137461	-0.045093	0.141591	-0.096499
4.425000	0.108171	-0.029464	-0.137635	-0.045441	0.141916	-0.096474
4.430000	0.108453	-0.029282	-0.137735	-0.045709	0.142137	-0.096427
4.435000	0.108646	-0.029143	-0.137788	-0.045901	0.142279	-0.096378
4.440000	0.108815	-0.029054	-0.137869	-0.046050	0.142423	-0.096373
4.445000	0.109041	-0.028974	-0.138015	-0.046227	0.142638	-0.096411
4.450000	0.109310	-0.028880	-0.138190	-0.046437	0.142894	-0.096458
4.455000	0.109536	-0.028783	-0.138320	-0.046623	0.143099	-0.096477
4.460000	0.109710	-0.028691	-0.138401	-0.046777	0.143247	-0.096470
4.465000	0.109938	-0.028540	-0.138477	-0.046995	0.143422	-0.096427
4.470000	0.110209	-0.028347	-0.138555	-0.047263	0.143624	-0.096361
4.475000	0.110424	-0.028176	-0.138600	-0.047486	0.143774	-0.096288
4.480000	0.110573	-0.028019	-0.138591	-0.047663	0.143855	-0.096192
4.485000	0.110761	-0.027857	-0.138618	-0.047864	0.143979	-0.096115
4.490000	0.111063	-0.027664	-0.138727	-0.048151	0.144217	-0.096066
4.495000	0.111496	-0.027413	-0.138909	-0.048546	0.144571	-0.096026
4.500000	0.111961	-0.027119	-0.139080	-0.048984	0.144939	-0.095955
4.505000	0.112348	-0.026843	-0.139191	-0.049366	0.145226	-0.095860
4.510000	0.112712	-0.026609	-0.139321	-0.049712	0.145511	-0.095800
4.515000	0.113131	-0.026362	-0.139493	-0.050096	0.145852	-0.095757
4.520000	0.113548	-0.026103	-0.139651	-0.050487	0.146184	-0.095698
4.525000	0.113802	-0.025907	-0.139709	-0.050746	0.146364	-0.095618
4.530000	0.113914	-0.025780	-0.139694	-0.050884	0.146421	-0.095536
4.535000	0.114025	-0.025738	-0.139763	-0.050972	0.146524	-0.095552
4.540000	0.114218	-0.025692	-0.139910	-0.051110	0.146720	-0.095610
4.545000	0.114533	-0.025511	-0.140044	-0.051397	0.146981	-0.095583
4.550000	0.114923	-0.025224	-0.140147	-0.051788	0.147265	-0.095477
4.555000	0.115315	-0.025000	-0.140315	-0.052143	0.147588	-0.095445
4.560000	0.115585	-0.024891	-0.140476	-0.052362	0.147837	-0.095474
4.565000	0.115744	-0.024805	-0.140549	-0.052503	0.147971	-0.095468
4.570000	0.115853	-0.024624	-0.140477	-0.052672	0.147992	-0.095321
4.575000	0.115924	-0.024306	-0.140229	-0.052896	0.147890	-0.094994
4.580000	0.116028	-0.023968	-0.139996	-0.053151	0.147816	-0.094665
4.585000	0.116208	-0.023721	-0.139929	-0.053397	0.147881	-0.094483
4.590000	0.116356	-0.023533	-0.139889	-0.053591	0.147943	-0.094352
4.595000	0.116457	-0.023316	-0.139773	-0.053775	0.147935	-0.094160
4.600000	0.116563	-0.023101	-0.139663	-0.053960	0.147932	-0.093972
4.605000	0.116680	-0.022937	-0.139616	-0.054123	0.147972	-0.093850
4.610000	0.116825	-0.022819	-0.139644	-0.054274	0.148072	-0.093798
4.615000	0.117054	-0.022737	-0.139791	-0.054454	0.148290	-0.093836
4.620000	0.117363	-0.022789	-0.140152	-0.054602	0.148676	-0.094074
4.625000	0.117647	-0.022892	-0.140539	-0.054707	0.149063	-0.094357
4.630000	0.117897	-0.022919	-0.140816	-0.054835	0.149368	-0.094533
4.635000	0.118125	-0.022867	-0.140992	-0.054997	0.149601	-0.094604
4.640000	0.118326	-0.022767	-0.141093	-0.055171	0.149776	-0.094605
4.645000	0.118522	-0.022556	-0.141078	-0.055406	0.149880	-0.094474
4.650000	0.118712	-0.022301	-0.141012	-0.055663	0.149952	-0.094289
4.655000	0.118894	-0.022095	-0.140989	-0.055887	0.150043	-0.094156
4.660000	0.119076	-0.021932	-0.141008	-0.056086	0.150159	-0.094073
4.665000	0.119239	-0.021800	-0.141038	-0.056256	0.150271	-0.094015
4.670000	0.119373	-0.021666	-0.141039	-0.056411	0.150349	-0.093938
4.675000	0.119513	-0.021492	-0.141004	-0.056593	0.150410	-0.093817
4.680000	0.119717	-0.021267	-0.140984	-0.056840	0.150516	-0.093675
4.685000	0.119927	-0.021027	-0.140954	-0.057100	0.150619	-0.093520
4.690000	0.120091	-0.020825	-0.140916	-0.057311	0.150693	-0.093381
4.695000	0.120312	-0.020642	-0.140954	-0.057544	0.150842	-0.093298
4.700000	0.120666	-0.020527	-0.141193	-0.057816	0.151185	-0.093369
4.705000	0.121133	-0.020552	-0.141685	-0.058071	0.151738	-0.093668
4.710000	0.121628	-0.020644	-0.142272	-0.058303	0.152362	-0.094059
4.715000	0.122045	-0.020583	-0.142629	-0.058579	0.152810	-0.094231
4.720000	0.122406	-0.020373	-0.142779	-0.058908	0.153104	-0.094196
4.725000	0.122781	-0.020138	-0.142919	-0.059261	0.153402	-0.094141
4.730000	0.123145	-0.019859	-0.143004	-0.059632	0.153661	-0.094029
4.735000	0.123397	-0.019546	-0.142943	-0.059959	0.153772	-0.093813
4.740000	0.123466	-0.019260	-0.142726	-0.060164	0.153686	-0.093522
4.745000	0.123393	-0.019037	-0.142430	-0.060250	0.153473	-0.093223
4.750000	0.123318	-0.018953	-0.142271	-0.060255	0.153338	-0.093083
4.755000	0.123301	-0.019007	-0.142308	-0.060214	0.153349	-0.093135
4.760000	0.123311	-0.018997	-0.142308	-0.060226	0.153355	-0.093129
4.765000	0.123379	-0.018879	-0.142258	-0.060333	0.153366	-0.093033
4.770000	0.123515	-0.018781	-0.142296	-0.060468	0.153467	-0.092998
4.775000	0.123735	-0.018799	-0.142534	-0.060585	0.153730	-0.093145
4.780000	0.124043	-0.018868	-0.142911	-0.060722	0.154126	-0.093404
4.785000	0.124364	-0.018857	-0.143222	-0.060915	0.154491	-0.093576
4.790000	0.124557	-0.018730	-0.143287	-0.061099	0.154640	-0.093540
4.795000	0.124626	-0.018460	-0.143085	-0.061295	0.154563	-0.093268
4.800000	0.124667	-0.018122	-0.142789	-0.061514	0.154415	-0.092902
4.805000	0.124737	-0.017855	-0.142592	-0.061709	0.154343	-0.092634
4.810000	0.124884	-0.017665	-0.142549	-0.061903	0.154403	-0.092500
4.815000	0.125140	-0.017528	-0.142667	-0.062130	0.154618	-0.092488
4.820000	0.125490	-0.017449	-0.142939	-0.062378	0.154977	-0.092600
4.825000	0.125856	-0.017406	-0.143262	-0.062613	0.155375	-0.092762
4.830000	0.126153	-0.017374	-0.143528	-0.062803	0.155700	-0.092897
4.835000	0.126375	-0.017296	-0.143671	-0.062977	0.155911	-0.092934
4.840000	0.126564	-0.017157	-0.143722	-0.063166	0.156050	-0.092883
4.845000	0.126741	-0.016996	-0.143737	-0.063361	0.156160	-0.092799
4.850000	0.126930	-0.016826	-0.143756	-0.063569	0.156280	-0.092712
4.855000	0.127102	-0.016706	-0.143808	-0.063738	0.156410	-0.092672
4.860000	0.127203	-0.016561	-0.143764	-0.063879	0.156443	-0.092564
4.865000	0.127251	-0.016332	-0.143583	-0.064039	0.156366	-0.092327
4.870000	0.127296	-0.016105	-0.143401	-0.064196	0.156287	-0.092091
4.875000	0.127340	-0.015964	-0.143304	-0.064303	0.156257	-0.091954
4.880000	0.127386	-0.015842	-0.143229	-0.064400	0.156240	-0.091840
4.885000	0.127449	-0.015669	-0.143118	-0.064537	0.156212	-0.091675
4.890000	0.127554	-0.015441	-0.142995	-0.064729	0.156202	-0.091473
4.895000	0.127755	-0.015166	-0.142921	-0.065004	0.156275	-0.091271
4.900000	0.128046	-0.014890	-0.142936	-0.065331	0.156452	-0.091121
4.905000	0.128324	-0.014698	-0.143022	-0.065602	0.156661	-0.091060
4.910000	0.128461	-0.014649	-0.143110	-0.065709	0.156791	-0.091082
4.915000	0.128527	-0.014663	-0.143190	-0.065739	0.156875	-0.091136
4.920000	0.128612	-0.014661	-0.143273	-0.065789	0.156973	-0.091184
4.925000	0.128712	-0.014602	-0.143314	-0.065882	0.157054	-0.091172
4.930000	0.128879	-0.014409	-0.143288	-0.066090	0.157136	-0.091046
4.935000	0.129163	-0.014079	-0.143242	-0.066444	0.157273	-0.090829
4.940000	0.129539	-0.013699	-0.143237	-0.066880	0.157487	-0.090607
4.945000	0.129980	-0.013420	-0.143400	-0.067296	0.157836	-0.090540
4.950000	0.130377	-0.013299	-0.143676	-0.067595	0.158225	-0.090630
4.955000	0.130611	-0.013180	-0.143791	-0.067799	0.158426	-0.090627
4.960000	0.130669	-0.012929	-0.143598	-0.067977	0.158348	-0.090371
4.965000	0.130610	-0.012564	-0.143173	-0.068154	0.158069	-0.089915
4.970000	0.130507	-0.012215	-0.142722	-0.068296	0.157749	-0.089452
4.975000	0.130462	-0.011989	-0.142451	-0.068401	0.157566	-0.089166
4.980000	0.130537	-0.011818	-0.142356	-0.068543	0.157555	-0.089012
4.985000	0.130674	-0.011542	-0.142216	-0.068781	0.157553	-0.088772
4.990000	0.130733	-0.011197	-0.141930	-0.069014	0.157422	-0.088408
4.995000	0.130736	-0.010853	-0.141589	-0.069214	0.157227	-0.088013
5.000000	0.130873	-0.010528	-0.141401	-0.069481	0.157197	-0.087716
5.005000	0.131193	-0.010238	-0.141431	-0.069833	0.157399	-0.087566
5.010000	0.131569	-0.009982	-0.141550	-0.070198	0.157685	-0.087487
5.015000	0.131880	-0.009748	-0.141628	-0.070513	0.157910	-0.087397
5.020000	0.132091	-0.009547	-0.141638	-0.070751	0.158037	-0.087286
5.025000	0.132263	-0.009398	-0.141662	-0.070936	0.158151	-0.087214
5.030000	0.132473	-0.009246	-0.141719	-0.071145	0.158305	-0.087160
5.035000	0.132745	-0.009131	-0.141876	-0.071369	0.158553	-0.087184
5.040000	0.133021	-0.009081	-0.142101	-0.071557	0.158842	-0.087285
5.045000	0.133230	-0.009044	-0.142274	-0.071698	0.159062	-0.087363
5.050000	0.133378	-0.009034	-0.142412	-0.071790	0.159227	-0.087437
5.055000	0.133496	-0.009139	-0.142635	-0.071797	0.159424	-0.087627
5.060000	0.133588	-0.009328	-0.142916	-0.071742	0.159640	-0.087898
5.065000	0.133702	-0.009498	-0.143200	-0.071709	0.159869	-0.088160
5.070000	0.133856	-0.009610	-0.143465	-0.071734	0.160112	-0.088378
5.075000	0.134039	-0.009600	-0.143639	-0.071845	0.160318	-0.088473
5.080000	0.134228	-0.009416	-0.143643	-0.072060	0.160429	-0.088369
5.085000	0.134415	-0.009124	-0.143539	-0.072337	0.160477	-0.088140
5.090000	0.134601	-0.008824	-0.143425	-0.072618	0.160519	-0.087901
5.095000	0.134834	-0.008467	-0.143300	-0.072958	0.160581	-0.087623
5.100000	0.135136	-0.008103	-0.143238	-0.073343	0.160719	-0.087377
5.105000	0.135459	-0.007884	-0.143343	-0.073655	0.160966	-0.087311
5.110000	0.135710	-0.007737	-0.143447	-0.073885	0.161171	-0.087287
5.115000	0.135882	-0.007603	-0.143485	-0.074062	0.161293	-0.087231
5.120000	0.135979	-0.007508	-0.143488	-0.074173	0.161350	-0.087177
5.125000	0.135975	-0.007486	-0.143462	-0.074183	0.161333	-0.087150
5.130000	0.135894	-0.007526	-0.143421	-0.074113	0.161262	-0.087149
5.135000	0.135830	-0.007601	-0.143431	-0.074033	0.161231	-0.087198
5.140000	0.135874	-0.007660	-0.143534	-0.074024	0.161316	-0.087292
5.145000	0.136031	-0.007704	-0.143735	-0.074090	0.161523	-0.087433
5.150000	0.136255	-0.007695	-0.143951	-0.074224	0.161777	-0.087553
5.155000	0.136460	-0.007639	-0.144099	-0.074375	0.161981	-0.087606
5.160000	0.136571	-0.007562	-0.144133	-0.074483	0.162065	-0.087582
5.165000	0.136655	-0.007466	-0.144121	-0.074587	0.162106	-0.087519
5.170000	0.136799	-0.007352	-0.144152	-0.074736	0.162207	-0.087471
5.175000	0.136978	-0.007205	-0.144183	-0.074925	0.162328	-0.087403
5.180000	0.137145	-0.007086	-0.144231	-0.075089	0.162452	-0.087363
5.185000	0.137272	-0.007124	-0.144396	-0.075141	0.162621	-0.087480
5.190000	0.137328	-0.007219	-0.144547	-0.075119	0.162741	-0.087622
5.195000	0.137361	-0.007180	-0.144541	-0.075160	0.162756	-0.087596
5.200000	0.137371	-0.007020	-0.144391	-0.075259	0.162675	-0.087417
5.205000	0.137335	-0.006810	-0.144145	-0.075359	0.162513	-0.087154
5.210000	0.137296	-0.006546	-0.143842	-0.075488	0.162315	-0.086826
5.215000	0.137225	-0.006322	-0.143548	-0.075577	0.162104	-0.086527
5.220000	0.137144	-0.006201	-0.143345	-0.075600	0.161941	-0.086341
5.225000	0.137102	-0.006131	-0.143232	-0.075616	0.161851	-0.086235
5.230000	0.137178	-0.006083	-0.143261	-0.075687	0.161912	-0.086224
5.235000	0.137392	-0.006020	-0.143411	-0.075848	0.162122	-0.086274
5.240000	0.137657	-0.005915	-0.143573	-0.076061	0.162368	-0.086307
5.245000	0.137755	-0.005890	-0.143646	-0.076132	0.162467	-0.086335
5.250000	0.137568	-0.006360	-0.143928	-0.075753	0.162521	-0.086769
5.255000	0.137345	-0.007201	-0.144546	-0.075139	0.162750	-0.087611
5.260000	0.137561	-0.007059	-0.144620	-0.075345	0.162917	-0.087572
5.265000	0.139131	-0.004676	-0.143808	-0.077628	0.163355	-0.085727
5.270000	0.142950	0.000091	-0.142859	-0.082585	0.165012	-0.082427
5.275000	0.149063	0.007571	-0.141492	-0.090432	0.167752	-0.077320
5.280000	0.156545	0.018084	-0.138461	-0.100822	0.170322	-0.069500
5.285000	0.164971	0.030787	-0.134184	-0.113021	0.172717	-0.059696
5.290000	0.173855	0.044221	-0.129635	-0.125906	0.175220	-0.049314
5.295000	0.181825	0.056734	-0.125091	-0.137732	0.177198	-0.039466
5.300000	0.187507	0.066305	-0.121202	-0.146538	0.178233	-0.031695
5.305000	0.189768	0.071764	-0.118004	-0.150995	0.177692	-0.026697
5.310000	0.188613	0.072748	-0.115865	-0.150897	0.175790	-0.024893
5.315000	0.184791	0.069367	-0.115424	-0.146738	0.173329	-0.026591
5.320000	0.178717	0.061390	-0.117326	-0.138626	0.170920	-0.032295
5.325000	0.170678	0.049126	-0.121553	-0.126904	0.168720	-0.041816
5.330000	0.161798	0.034695	-0.127103	-0.113445	0.166797	-0.053352
5.335000	0.153605	0.020963	-0.132642	-0.100787	0.165264	-0.064478
5.340000	0.147209	0.010054	-0.137155	-0.090796	0.164178	-0.073382
5.345000	0.142983	0.002739	-0.140243	-0.084133	0.163520	-0.079388
5.350000	0.140627	-0.001429	-0.142056	-0.080366	0.163207	-0.082841
5.355000	0.139492	-0.003383	-0.142875	-0.078582	0.163024	-0.084442
5.360000	0.138966	-0.004032	-0.142998	-0.077904	0.162792	-0.084888
5.365000	0.138743	-0.004023	-0.142766	-0.077781	0.162529	-0.084748
5.370000	0.138717	-0.003784	-0.142501	-0.077904	0.162362	-0.084458
5.375000	0.138839	-0.003576	-0.142414	-0.078094	0.162381	-0.084287
5.380000	0.139024	-0.003448	-0.142472	-0.078275	0.162522	-0.084247
5.385000	0.139159	-0.003403	-0.142562	-0.078379	0.162652	-0.084273
5.390000	0.139223	-0.003413	-0.142636	-0.078410	0.162731	-0.084322
5.395000	0.139228	-0.003468	-0.142696	-0.078381	0.162768	-0.084387
5.400000	0.138889	-0.004641	-0.143530	-0.077508	0.163054	-0.085546
5.405000	0.135228	-0.013964	-0.149193	-0.070012	0.164210	-0.094199
5.410000	0.122586	-0.043018	-0.165604	-0.045938	0.166386	-0.120448
5.415000	0.100731	-0.099452	-0.200183	-0.000738	0.173733	-0.172994
5.420000	0.084588	-0.181613	-0.266201	0.056017	0.202528	-0.258545
5.425000	0.104332	-0.274840	-0.379171	0.098443	0.279150	-0.377593
5.430000	0.186696	-0.351871	-0.538567	0.095364	0.418730	-0.514094
5.435000	0.335927	-0.381210	-0.717137	0.026144	0.607986	-0.634131
5.440000	0.526914	-0.339627	-0.866541	-0.108130	0.804511	-0.696381
5.445000	0.712926	-0.221967	-0.934893	-0.283455	0.951368	-0.667913
5.450000	0.847715	-0.042061	-0.889776	-0.465144	1.003141	-0.537996
5.455000	0.904642	0.169494	-0.735149	-0.620153	0.946733	-0.326581
5.460000	0.883194	0.373656	-0.509538	-0.725642	0.804094	-0.078452
5.465000	0.801318	0.533855	-0.267463	-0.770862	0.617061	0.153801
5.470000	0.682906	0.623796	-0.059110	-0.754424	0.428403	0.326021
5.475000	0.550823	0.634941	0.084118	-0.684601	0.269452	0.415149
5.480000	0.423828	0.579400	0.155572	-0.579214	0.154878	0.424336
5.485000	0.314872	0.483950	0.169078	-0.461200	0.084174	0.377026
5.490000	0.230409	0.378863	0.148454	-0.351763	0.047316	0.304446
5.495000	0.171381	0.287458	0.116078	-0.264911	0.031929	0.232982
5.500000	0.134913	0.220977	0.086064	-0.205473	0.028203	0.177270
5.505000	0.116291	0.179870	0.063580	-0.170989	0.030433	0.140556
5.510000	0.109922	0.158647	0.048726	-0.155058	0.035331	0.119727
5.515000	0.110333	0.149954	0.039621	-0.150277	0.040826	0.109451
5.520000	0.113297	0.146802	0.033505	-0.150168	0.046068	0.104100
5.525000	0.116337	0.144603	0.028265	-0.150654	0.050848	0.099805
5.530000	0.118889	0.141744	0.022855	-0.150477	0.055446	0.095031
5.535000	0.121773	0.138393	0.016620	-0.150207	0.060710	0.089496
5.540000	0.125874	0.135158	0.009284	-0.150707	0.067313	0.083394
5.545000	0.131612	0.132491	0.000878	-0.152480	0.075479	0.077000
5.550000	0.138316	0.130639	-0.007678	-0.155281	0.084290	0.070992
5.555000	0.145054	0.129751	-0.015303	-0.158659	0.092582	0.066077
5.560000	0.151652	0.129425	-0.022226	-0.162280	0.100389	0.061891
5.565000	0.157999	0.129176	-0.028822	-0.165800	0.107861	0.057939
5.570000	0.163579	0.128748	-0.034830	-0.168775	0.114551	0.054223
5.575000	0.167952	0.128120	-0.039832	-0.170937	0.119964	0.050973
5.580000	0.171638	0.126936	-0.044702	-0.172382	0.124904	0.047478
5.585000	0.175499	0.124432	-0.051068	-0.173165	0.130808	0.042357
5.590000	0.179617	0.120598	-0.059018	-0.173329	0.137776	0.035553
5.595000	0.183892	0.116270	-0.067622	-0.173298	0.145211	0.028087
5.600000	0.188650	0.112294	-0.076355	-0.173750	0.153001	0.020750
5.605000	0.193749	0.109195	-0.084554	-0.174905	0.160678	0.014227
5.610000	0.198665	0.107174	-0.091491	-0.176576	0.167522	0.009054
5.615000	0.203387	0.106051	-0.097336	-0.178654	0.173623	0.005031
5.620000	0.208282	0.105518	-0.102764	-0.181173	0.179583	0.001590
5.625000	0.213375	0.105223	-0.108152	-0.183943	0.185634	-0.001691
5.630000	0.218848	0.104865	-0.113983	-0.186896	0.192160	-0.005264
5.635000	0.224722	0.104422	-0.120300	-0.190031	0.199198	-0.009167
5.640000	0.230704	0.103925	-0.126779	-0.193198	0.206393	-0.013195
5.645000	0.236966	0.103475	-0.133491	-0.196554	0.213883	-0.017329
5.650000	0.243438	0.103020	-0.140418	-0.200027	0.221619	-0.021591
5.655000	0.250042	0.102467	-0.147575	-0.203521	0.229564	-0.026044
5.660000	0.257149	0.102011	-0.155137	-0.207361	0.238033	-0.030672
5.665000	0.265006	0.101574	-0.163432	-0.211645	0.247359	-0.035714
5.670000	0.273203	0.101031	-0.172172	-0.216064	0.257137	-0.041074
5.675000	0.281559	0.100088	-0.181470	-0.220344	0.267330	-0.046986
5.680000	0.290573	0.098377	-0.192197	-0.224560	0.278727	-0.054167
5.685000	0.300408	0.095713	-0.204695	-0.228701	0.291621	-0.062921
5.690000	0.310918	0.092263	-0.218655	-0.232777	0.305749	-0.072972
5.695000	0.321587	0.088021	-0.233566	-0.236487	0.320518	-0.084031
5.700000	0.332536	0.083375	-0.249161	-0.240126	0.335843	-0.095717
5.705000	0.344635	0.079893	-0.264741	-0.245101	0.351823	-0.106722
5.710000	0.358366	0.079213	-0.279153	-0.252637	0.368072	-0.115435
5.715000	0.373797	0.081937	-0.291860	-0.263118	0.384317	-0.121199
5.720000	0.390468	0.088032	-0.302437	-0.276262	0.400049	-0.123787
5.725000	0.407895	0.096579	-0.311315	-0.291258	0.415236	-0.123978
5.730000	0.425378	0.106261	-0.319117	-0.306942	0.429835	-0.122892
5.735000	0.441879	0.116327	-0.325553	-0.322280	0.443077	-0.120797
5.740000	0.456115	0.126122	-0.329993	-0.336154	0.453860	-0.117705
5.745000	0.467671	0.135049	-0.332622	-0.347981	0.462049	-0.114069
5.750000	0.476067	0.143224	-0.332844	-0.357548	0.467025	-0.109477
5.755000	0.479804	0.150958	-0.328846	-0.364170	0.466874	-0.102704
5.760000	0.476946	0.158507	-0.318439	-0.366879	0.459216	-0.092337
5.765000	0.465726	0.164465	-0.301262	-0.363841	0.442820	-0.078980
5.770000	0.445169	0.166361	-0.278808	-0.353067	0.417988	-0.064921
5.775000	0.416168	0.162304	-0.253863	-0.333981	0.386842	-0.052862
5.780000	0.381544	0.152063	-0.229481	-0.308078	0.352776	-0.044698
5.785000	0.344869	0.136549	-0.208320	-0.277947	0.319384	-0.041437
5.790000	0.309017	0.117780	-0.191237	-0.246411	0.288822	-0.042410
5.795000	0.275864	0.098444	-0.177421	-0.216107	0.261704	-0.045597
5.800000	0.246403	0.080436	-0.165967	-0.188700	0.238081	-0.049381
5.805000	0.220831	0.064810	-0.156021	-0.164915	0.217576	-0.052661
5.810000	0.199274	0.052424	-0.146850	-0.145318	0.199835	-0.054517
5.815000	0.181358	0.043297	-0.138061	-0.129705	0.184417	-0.054712
5.820000	0.166138	0.035843	-0.130295	-0.116614	0.171146	-0.054532
5.825000	0.152844	0.028659	-0.124185	-0.104791	0.159943	-0.055152
5.830000	0.140920	0.021453	-0.119468	-0.093746	0.150335	-0.056589
5.835000	0.130273	0.014377	-0.115896	-0.083514	0.142126	-0.058612
5.840000	0.121254	0.007383	-0.113871	-0.074269	0.135750	-0.061481
5.845000	0.113731	0.000260	-0.113471	-0.065813	0.131175	-0.065362
5.850000	0.107501	-0.006996	-0.114497	-0.058026	0.128170	-0.070144
5.855000	0.102513	-0.014535	-0.117048	-0.050794	0.126764	-0.075970
5.860000	0.098458	-0.021740	-0.120198	-0.044293	0.126241	-0.081948
5.865000	0.095195	-0.027505	-0.122700	-0.039081	0.125802	-0.086721
5.870000	0.092748	-0.031240	-0.123989	-0.035512	0.125133	-0.089622
5.875000	0.091079	-0.033095	-0.124174	-0.033477	0.124276	-0.090800
5.880000	0.090021	-0.033676	-0.123697	-0.032531	0.123390	-0.090859
5.885000	0.089434	-0.033656	-0.123090	-0.032203	0.122700	-0.090497
5.890000	0.089152	-0.033508	-0.122661	-0.032126	0.122290	-0.090164
5.895000	0.089010	-0.033406	-0.122417	-0.032103	0.122067	-0.089964
5.900000	0.088878	-0.033385	-0.122263	-0.032039	0.121903	-0.089864
5.905000	0.088774	-0.033393	-0.122167	-0.031974	0.121787	-0.089813
5.910000	0.088768	-0.033371	-0.122140	-0.031984	0.121768	-0.089784
5.915000	0.088897	-0.033240	-0.122137	-0.032134	0.121840	-0.089707
5.920000	0.089122	-0.033045	-0.122168	-0.032376	0.121988	-0.089612
5.925000	0.089372	-0.032861	-0.122233	-0.032627	0.122170	-0.089543
5.930000	0.089561	-0.032583	-0.122144	-0.032896	0.122228	-0.089332
5.935000	0.089667	-0.032159	-0.121826	-0.033202	0.122105	-0.088903
5.940000	0.089786	-0.031739	-0.121525	-0.033514	0.122000	-0.088487
5.945000	0.089863	-0.031477	-0.121340	-0.033709	0.121939	-0.088229
5.950000	0.089868	-0.031409	-0.121277	-0.033752	0.121905	-0.088153
5.955000	0.089858	-0.031476	-0.121334	-0.033706	0.121931	-0.088225
5.960000	0.089947	-0.031549	-0.121496	-0.033716	0.122077	-0.088360
5.965000	0.090165	-0.031487	-0.121652	-0.033878	0.122293	-0.088415
5.970000	0.090447	-0.031323	-0.121770	-0.034135	0.122523	-0.088388
5.975000	0.090659	-0.031107	-0.121766	-0.034382	0.122643	-0.088261
5.980000	0.090777	-0.030889	-0.121666	-0.034576	0.122654	-0.088078
5.985000	0.090843	-0.030654	-0.121498	-0.034750	0.122595	-0.087845
5.990000	0.090888	-0.030395	-0.121282	-0.034926	0.122496	-0.087571
5.995000	0.090963	-0.030099	-0.121063	-0.035140	0.122413	-0.087274
6.000000	0.091079	-0.029818	-0.120897	-0.035369	0.122385	-0.087015
6.005000	0.091207	-0.029589	-0.120796	-0.035576	0.122400	-0.086825
6.010000	0.091320	-0.029358	-0.120678	-0.035774	0.122397	-0.086623
6.015000	0.091381	-0.029106	-0.120487	-0.035955	0.122322	-0.086368
6.020000	0.091374	-0.028891	-0.120265	-0.036074	0.122189	-0.086115
6.025000	0.091323	-0.028723	-0.120046	-0.036142	0.122034	-0.085892
6.030000	0.091286	-0.028526	-0.119812	-0.036235	0.121877	-0.085643
6.035000	0.091332	-0.028383	-0.119715	-0.036344	0.121848	-0.085504
6.040000	0.091428	-0.028345	-0.119774	-0.036421	0.121937	-0.085516
6.045000	0.091534	-0.028276	-0.119810	-0.036522	0.122020	-0.085498
6.050000	0.091639	-0.028077	-0.119716	-0.036697	0.122026	-0.085329
6.055000	0.091708	-0.027801	-0.119509	-0.036897	0.121946	-0.085049
6.060000	0.091686	-0.027501	-0.119187	-0.037058	0.121748	-0.084690
6.065000	0.091658	-0.027189	-0.118848	-0.037221	0.121536	-0.084315
6.070000	0.091726	-0.027013	-0.118740	-0.037362	0.121513	-0.084150
6.075000	0.091962	-0.027014	-0.118976	-0.037498	0.121785	-0.084288
6.080000	0.092407	-0.026971	-0.119378	-0.037779	0.122274	-0.084495
6.085000	0.092863	-0.026913	-0.119776	-0.038076	0.122767	-0.084691
6.090000	0.093075	-0.026935	-0.120010	-0.038186	0.123025	-0.084839
6.095000	0.092958	-0.027024	-0.119982	-0.038067	0.122941	-0.084874
6.100000	0.092628	-0.027130	-0.119758	-0.037815	0.122621	-0.084806
6.105000	0.092307	-0.027239	-0.119546	-0.037567	0.122313	-0.084746
6.110000	0.092151	-0.027341	-0.119492	-0.037418	0.122192	-0.084774
6.115000	0.092174	-0.027430	-0.119604	-0.037380	0.122270	-0.084890
6.120000	0.092280	-0.027522	-0.119802	-0.037388	0.122446	-0.085058
6.125000	0.092417	-0.027559	-0.119976	-0.037446	0.122625	-0.085180
6.130000	0.092490	-0.027482	-0.119972	-0.037532	0.122665	-0.085132
6.135000	0.092494	-0.027306	-0.119800	-0.037636	0.122568	-0.084931
6.140000	0.092521	-0.027006	-0.119527	-0.037825	0.122426	-0.084601
6.145000	0.092534	-0.026541	-0.119075	-0.038101	0.122172	-0.084072
6.150000	0.092570	-0.026040	-0.118609	-0.038411	0.121924	-0.083513
6.155000	0.092667	-0.025710	-0.118377	-0.038658	0.121846	-0.083188
6.160000	0.092910	-0.025591	-0.118501	-0.038867	0.122058	-0.083191
6.165000	0.093312	-0.025612	-0.118924	-0.039087	0.122534	-0.083448
6.170000	0.093749	-0.025703	-0.119451	-0.039286	0.123091	-0.083805
6.175000	0.094104	-0.025763	-0.119868	-0.039457	0.123537	-0.084080
6.180000	0.094275	-0.025730	-0.120004	-0.039574	0.123714	-0.084140
6.185000	0.094248	-0.025662	-0.119911	-0.039598	0.123645	-0.084046
6.190000	0.094107	-0.025577	-0.119684	-0.039565	0.123432	-0.083867
6.195000	0.093944	-0.025435	-0.119379	-0.039554	0.123162	-0.083608
6.200000	0.093815	-0.025302	-0.119117	-0.039556	0.122937	-0.083380
6.205000	0.093705	-0.025236	-0.118941	-0.039531	0.122772	-0.083241
6.210000	0.093677	-0.025211	-0.118887	-0.039529	0.122724	-0.083195
6.215000	0.093799	-0.025090	-0.118889	-0.039669	0.122796	-0.083126
6.220000	0.094034	-0.024829	-0.118863	-0.039956	0.122916	-0.082960
6.225000	0.094229	-0.024474	-0.118703	-0.040273	0.122937	-0.082663
6.230000	0.094304	-0.024128	-0.118432	-0.040516	0.122824	-0.082307
6.235000	0.094338	-0.024001	-0.118339	-0.040609	0.122789	-0.082180
6.240000	0.094377	-0.024088	-0.118464	-0.040581	0.122884	-0.082302
6.245000	0.094468	-0.024160	-0.118629	-0.040592	0.123032	-0.082439
6.250000	0.094660	-0.024047	-0.118707	-0.040769	0.123187	-0.082419
6.255000	0.094912	-0.023826	-0.118738	-0.041042	0.123351	-0.082309
6.260000	0.095118	-0.023592	-0.118710	-0.041295	0.123453	-0.082158
6.265000	0.095262	-0.023327	-0.118590	-0.041532	0.123467	-0.081936
6.270000	0.095323	-0.023105	-0.118428	-0.041695	0.123410	-0.081714
6.275000	0.095291	-0.022893	-0.118184	-0.041799	0.123249	-0.081451
6.280000	0.095222	-0.022598	-0.117821	-0.041930	0.123001	-0.081071
6.285000	0.095198	-0.022288	-0.117486	-0.042094	0.122793	-0.080698
6.290000	0.095198	-0.022097	-0.117296	-0.042205	0.122684	-0.080479
6.295000	0.095191	-0.022013	-0.117204	-0.042249	0.122626	-0.080377
6.300000	0.095212	-0.021967	-0.117179	-0.042288	0.122624	-0.080336
6.305000	0.095263	-0.021969	-0.117232	-0.042316	0.122684	-0.080368
6.310000	0.095339	-0.021941	-0.117279	-0.042376	0.122755	-0.080379
6.315000	0.095465	-0.021796	-0.117261	-0.042533	0.122817	-0.080284
6.320000	0.095615	-0.021571	-0.117186	-0.042749	0.122861	-0.080111
6.325000	0.095742	-0.021297	-0.117039	-0.042981	0.122849	-0.079868
6.330000	0.095802	-0.020992	-0.116794	-0.043192	0.122742	-0.079550
6.335000	0.095819	-0.020710	-0.116528	-0.043364	0.122599	-0.079235
6.340000	0.095810	-0.020511	-0.116320	-0.043474	0.122473	-0.078999
6.345000	0.095698	-0.020397	-0.116095	-0.043475	0.122279	-0.078804
6.350000	0.095518	-0.020363	-0.115880	-0.043391	0.122051	-0.078660
6.355000	0.095364	-0.020418	-0.115781	-0.043270	0.121905	-0.078635
6.360000	0.095293	-0.020497	-0.115790	-0.043184	0.121869	-0.078685
6.365000	0.095354	-0.020512	-0.115866	-0.043210	0.121948	-0.078738
6.370000	0.095465	-0.020478	-0.115943	-0.043294	0.122056	-0.078762
6.375000	0.095542	-0.020350	-0.115891	-0.043412	0.122071	-0.078659
6.380000	0.095644	-0.020137	-0.115781	-0.043594	0.122067	-0.078472
6.385000	0.095794	-0.019937	-0.115732	-0.043796	0.122125	-0.078329
6.390000	0.095935	-0.019755	-0.115690	-0.043982	0.122182	-0.078200
6.395000	0.096023	-0.019513	-0.115536	-0.044173	0.122143	-0.077971
6.400000	0.096086	-0.019216	-0.115302	-0.044380	0.122045	-0.077664
6.405000	0.096148	-0.018985	-0.115132	-0.044550	0.121982	-0.077432
6.410000	0.096225	-0.018851	-0.115077	-0.044672	0.121995	-0.077323
6.415000	0.096281	-0.018722	-0.115004	-0.044779	0.121985	-0.077207
6.420000	0.096251	-0.018587	-0.114838	-0.044840	0.121872	-0.077032
6.425000	0.096179	-0.018478	-0.114656	-0.044861	0.121726	-0.076865
6.430000	0.096111	-0.018356	-0.114467	-0.044892	0.121577	-0.076685
6.435000	0.096090	-0.018206	-0.114296	-0.044966	0.121466	-0.076500
6.440000	0.096076	-0.018089	-0.114165	-0.045025	0.121382	-0.076357
6.445000	0.096032	-0.017921	-0.113953	-0.045098	0.121235	-0.076137
6.450000	0.095940	-0.017667	-0.113607	-0.045191	0.120982	-0.075791
6.455000	0.095869	-0.017421	-0.113290	-0.045292	0.120758	-0.075466
6.460000	0.095882	-0.017176	-0.113058	-0.045441	0.120632	-0.075191
6.465000	0.095968	-0.016961	-0.112929	-0.045614	0.120606	-0.074992
6.470000	0.096095	-0.016862	-0.112956	-0.045745	0.120695	-0.074950
6.475000	0.096218	-0.016788	-0.113006	-0.045859	0.120795	-0.074936
6.480000	0.096276	-0.016728	-0.113004	-0.045927	0.120828	-0.074901
6.485000	0.096267	-0.016715	-0.112982	-0.045929	0.120810	-0.074880
6.490000	0.096188	-0.016706	-0.112894	-0.045889	0.120713	-0.074825
6.495000	0.096040	-0.016629	-0.112669	-0.045848	0.120498	-0.074650
6.500000	0.095897	-0.016433	-0.112330	-0.045878	0.120220	-0.074341
6.505000	0.095752	-0.016194	-0.111946	-0.045933	0.119914	-0.073981
6.510000	0.095632	-0.015976	-0.111608	-0.045990	0.119651	-0.073661
6.515000	0.095538	-0.015819	-0.111357	-0.046025	0.119451	-0.073425
6.520000	0.095484	-0.015732	-0.111216	-0.046045	0.119338	-0.073294
6.525000	0.095515	-0.015759	-0.111274	-0.046047	0.119389	-0.073342
6.530000	0.095627	-0.015808	-0.111436	-0.046083	0.119548	-0.073464
6.535000	0.095751	-0.015812	-0.111563	-0.046153	0.119693	-0.073540
6.540000	0.095827	-0.015796	-0.111623	-0.046206	0.119771	-0.073565
6.545000	0.095863	-0.015686	-0.111549	-0.046290	0.119749	-0.073459
6.550000	0.095991	-0.015501	-0.111492	-0.046471	0.119791	-0.073320
6.555000	0.096285	-0.015373	-0.111658	-0.046714	0.120055	-0.073341
6.560000	0.096615	-0.015308	-0.111923	-0.046942	0.120399	-0.073457
6.565000	0.096819	-0.015245	-0.112064	-0.047097	0.120599	-0.073502
6.570000	0.096907	-0.015198	-0.112105	-0.047175	0.120673	-0.073498
6.575000	0.096945	-0.015144	-0.112089	-0.047228	0.120685	-0.073458
6.580000	0.096905	-0.015102	-0.112007	-0.047229	0.120616	-0.073387
6.585000	0.096818	-0.015096	-0.111914	-0.047182	0.120511	-0.073329
6.590000	0.096815	-0.015051	-0.111866	-0.047207	0.120482	-0.073275
6.595000	0.096931	-0.014837	-0.111767	-0.047397	0.120492	-0.073095
6.600000	0.097029	-0.014500	-0.111528	-0.047648	0.120410	-0.072762
6.605000	0.096970	-0.014225	-0.111195	-0.047773	0.120184	-0.072411
6.610000	0.096723	-0.014047	-0.110770	-0.047733	0.119796	-0.072063
6.615000	0.096409	-0.013940	-0.110350	-0.047613	0.119372	-0.071759
6.620000	0.096128	-0.013928	-0.110056	-0.047458	0.119040	-0.071582
6.625000	0.095993	-0.013921	-0.109914	-0.047384	0.118881	-0.071496
6.630000	0.096058	-0.013786	-0.109845	-0.047500	0.118878	-0.071378
6.635000	0.096237	-0.013535	-0.109772	-0.047748	0.118939	-0.071191
6.640000	0.096451	-0.013248	-0.109699	-0.048037	0.119020	-0.070983
6.645000	0.096669	-0.012984	-0.109653	-0.048316	0.119120	-0.070804
6.650000	0.096836	-0.012736	-0.109571	-0.048555	0.119169	-0.070614
6.655000	0.096886	-0.012533	-0.109419	-0.048701	0.119110	-0.070409
6.660000	0.096841	-0.012408	-0.109249	-0.048747	0.118986	-0.070239
6.665000	0.096794	-0.012302	-0.109096	-0.048782	0.118871	-0.070089
6.670000	0.096767	-0.012281	-0.109048	-0.048778	0.118828	-0.070049
6.675000	0.096754	-0.012346	-0.109100	-0.048733	0.118850	-0.070117
6.680000	0.096761	-0.012404	-0.109165	-0.048703	0.118891	-0.070188
6.685000	0.096741	-0.012383	-0.109124	-0.048704	0.118856	-0.070152
6.690000	0.096593	-0.012247	-0.108839	-0.048697	0.118606	-0.069909
6.695000	0.096371	-0.012020	-0.108392	-0.048700	0.118220	-0.069520
6.700000	0.096270	-0.011758	-0.108027	-0.048793	0.117951	-0.069158
6.705000	0.096349	-0.011496	-0.107845	-0.048990	0.117891	-0.068902
6.710000	0.096532	-0.011253	-0.107785	-0.049236	0.117963	-0.068727
6.715000	0.096782	-0.011023	-0.107805	-0.049513	0.118118	-0.068605
6.720000	0.097061	-0.010888	-0.107949	-0.049752	0.118363	-0.068611
6.725000	0.097274	-0.010919	-0.108193	-0.049857	0.118626	-0.068769
6.730000	0.097369	-0.011422	-0.108791	-0.049622	0.119026	-0.069405
6.735000	0.097439	-0.012603	-0.110042	-0.048980	0.119789	-0.070809
6.740000	0.097581	-0.013507	-0.111087	-0.048540	0.120474	-0.071934
6.745000	0.098301	-0.012551	-0.110852	-0.049508	0.120754	-0.071247
6.750000	0.100706	-0.009135	-0.109841	-0.052869	0.121560	-0.068691
6.755000	0.105554	-0.003180	-0.108734	-0.059105	0.123719	-0.064614
6.760000	0.112262	0.005853	-0.106409	-0.068194	0.126249	-0.058056
6.765000	0.120003	0.017716	-0.102287	-0.079512	0.128339	-0.048827
6.770000	0.128489	0.031069	-0.097421	-0.092121	0.130429	-0.038308
6.775000	0.136657	0.044390	-0.092267	-0.104528	0.132170	-0.027642
6.780000	0.143151	0.055540	-0.087611	-0.114714	0.133231	-0.018516
6.785000	0.146755	0.062844	-0.083910	-0.121012	0.133174	-0.012162
6.790000	0.146915	0.065795	-0.081120	-0.122808	0.131656	-0.008848
6.795000	0.144146	0.064439	-0.079707	-0.120427	0.129242	-0.008815
6.800000	0.138958	0.058628	-0.080329	-0.114076	0.126605	-0.012529
6.805000	0.131653	0.048125	-0.083528	-0.103795	0.124234	-0.020440
6.810000	0.122958	0.034362	-0.088596	-0.090828	0.122140	-0.031312
6.815000	0.114278	0.020136	-0.094142	-0.077604	0.120331	-0.042727
6.820000	0.106939	0.007884	-0.099055	-0.066293	0.118930	-0.052638
6.825000	0.101598	-0.001045	-0.102644	-0.058054	0.117919	-0.059865
6.830000	0.098320	-0.006496	-0.104816	-0.053014	0.117281	-0.064266
6.835000	0.096642	-0.009198	-0.105840	-0.050485	0.116903	-0.066417
6.840000	0.095932	-0.010219	-0.106151	-0.049486	0.116673	-0.067187
6.845000	0.095693	-0.010423	-0.106115	-0.049231	0.116514	-0.067283
6.850000	0.095665	-0.010314	-0.105979	-0.049277	0.116419	-0.067142
6.855000	0.095688	-0.010218	-0.105906	-0.049346	0.116390	-0.067044
6.860000	0.095699	-0.010215	-0.105914	-0.049354	0.116401	-0.067047
6.865000	0.095666	-0.010202	-0.105868	-0.049343	0.116356	-0.067013
6.870000	0.095546	-0.010079	-0.105625	-0.049345	0.116146	-0.066801
6.875000	0.095369	-0.009851	-0.105220	-0.049374	0.115810	-0.066436
6.880000	0.095233	-0.009837	-0.105070	-0.049303	0.115645	-0.066341
6.885000	0.093839	-0.013788	-0.107628	-0.046218	0.116317	-0.070099
6.890000	0.086083	-0.032161	-0.118244	-0.031132	0.117968	-0.086836
6.895000	0.067885	-0.075466	-0.143351	0.004377	0.121957	-0.126334
6.900000	0.046057	-0.146568	-0.192625	0.058030	0.137803	-0.195833
6.905000	0.044950	-0.237167	-0.282117	0.110977	0.188832	-0.299809
6.910000	0.095874	-0.325305	-0.421179	0.132463	0.298520	-0.430983
6.915000	0.215082	-0.380115	-0.595197	0.095281	0.467815	-0.563096
6.920000	0.391246	-0.372949	-0.764194	-0.010564	0.667093	-0.656529
6.925000	0.585502	-0.289887	-0.875389	-0.170674	0.843446	-0.672772
6.930000	0.748609	-0.136354	-0.884963	-0.353486	0.943143	-0.589657
6.935000	0.843199	0.064567	-0.778633	-0.524099	0.936365	-0.412266
6.940000	0.856557	0.276647	-0.579910	-0.654255	0.829345	-0.175089
6.945000	0.799579	0.461012	-0.338567	-0.727802	0.657108	0.070694
6.950000	0.694690	0.585802	-0.108888	-0.739292	0.463946	0.275346
6.955000	0.565873	0.633342	0.067468	-0.692367	0.287754	0.404613
6.960000	0.434153	0.606181	0.172027	-0.600637	0.151338	0.449299
6.965000	0.315554	0.525399	0.209846	-0.485524	0.061030	0.424494
6.970000	0.219484	0.421251	0.201768	-0.369928	0.010228	0.359700
6.975000	0.149158	0.321287	0.172129	-0.271612	-0.013262	0.284874
6.980000	0.103053	0.242429	0.139376	-0.199464	-0.020971	0.220435
6.985000	0.077074	0.189808	0.112733	-0.154084	-0.020588	0.174672
6.990000	0.065909	0.160185	0.094277	-0.130535	-0.016378	0.146914
6.995000	0.063846	0.146654	0.082807	-0.121532	-0.010947	0.132479
7.000000	0.066041	0.141810	0.075770	-0.120003	-0.005617	0.125620
7.005000	0.069342	0.139675	0.070333	-0.120676	-0.000572	0.121248
7.010000	0.072325	0.137256	0.064931	-0.121002	0.004269	0.116733
7.015000	0.075212	0.134037	0.058825	-0.120809	0.009461	0.111349
7.020000	0.078747	0.130514	0.051767	-0.120817	0.015577	0.105240
7.025000	0.083642	0.127333	0.043690	-0.121806	0.023066	0.098740
7.030000	0.089793	0.124878	0.035086	-0.123940	0.031585	0.092355
7.035000	0.096277	0.123183	0.026906	-0.126705	0.040052	0.086654
7.040000	0.102550	0.122078	0.019528	-0.129689	0.047932	0.081756
7.045000	0.108700	0.121365	0.012665	-0.132828	0.055446	0.077382
7.050000	0.114499	0.120952	0.006453	-0.135937	0.062380	0.073557
7.055000	0.119374	0.120683	0.001309	-0.138597	0.068164	0.070432
7.060000	0.123260	0.120188	-0.003072	-0.140555	0.072938	0.067617
7.065000	0.126980	0.118578	-0.008402	-0.141773	0.078162	0.063610
7.070000	0.131023	0.115433	-0.015590	-0.142291	0.084647	0.057644
7.075000	0.135245	0.111334	-0.023911	-0.142362	0.091888	0.050474
7.080000	0.139784	0.107205	-0.032579	-0.142599	0.099514	0.043085
7.085000	0.144797	0.103746	-0.041050	-0.143496	0.107299	0.036197
7.090000	0.149839	0.101306	-0.048533	-0.144999	0.114530	0.030468
7.095000	0.154395	0.099891	-0.054503	-0.146812	0.120607	0.026205
7.100000	0.158767	0.099201	-0.059566	-0.148938	0.126055	0.022883
7.105000	0.163546	0.098953	-0.064593	-0.151554	0.131716	0.019838
7.110000	0.168863	0.098851	-0.070012	-0.154565	0.137914	0.016650
7.115000	0.174801	0.098636	-0.076165	-0.157869	0.144895	0.012974
7.120000	0.180922	0.098267	-0.082654	-0.161190	0.152176	0.009014
7.125000	0.187086	0.097688	-0.089399	-0.164414	0.159629	0.004786
7.130000	0.193434	0.096897	-0.096537	-0.167623	0.167415	0.000208
7.135000	0.199796	0.095995	-0.103802	-0.170775	0.175282	-0.004507
7.140000	0.206446	0.095301	-0.111145	-0.174214	0.183361	-0.009147
7.145000	0.213879	0.095003	-0.118875	-0.178333	0.192115	-0.013782
7.150000	0.222004	0.095114	-0.126890	-0.183088	0.201434	-0.018346
7.155000	0.230255	0.095268	-0.134987	-0.187940	0.210872	-0.022932
7.160000	0.238909	0.094820	-0.144089	-0.192679	0.221124	-0.028445
7.165000	0.248361	0.093242	-0.155118	-0.197224	0.232949	-0.035724
7.170000	0.258472	0.090270	-0.168202	-0.201346	0.246341	-0.044994
7.175000	0.268748	0.086091	-0.182657	-0.204866	0.260619	-0.055753
7.180000	0.278912	0.080943	-0.197969	-0.207762	0.275327	-0.067565
7.185000	0.289757	0.076057	-0.213700	-0.211203	0.290670	-0.079468
7.190000	0.302154	0.073386	-0.228768	-0.216818	0.306528	-0.089710
7.195000	0.316567	0.074102	-0.242465	-0.225553	0.322757	-0.097204
7.200000	0.332752	0.078366	-0.254386	-0.237359	0.338984	-0.101625
7.205000	0.350066	0.085700	-0.264367	-0.251589	0.354743	-0.103153
7.210000	0.367819	0.094790	-0.273028	-0.267087	0.369993	-0.102906
7.215000	0.385120	0.104574	-0.280547	-0.282725	0.384323	-0.101598
7.220000	0.400622	0.114398	-0.286224	-0.297347	0.396550	-0.099204
7.225000	0.413374	0.123643	-0.289730	-0.310047	0.405937	-0.095890
7.230000	0.423136	0.132290	-0.290846	-0.320675	0.412218	-0.091543
7.235000	0.428996	0.140412	-0.288584	-0.328748	0.414295	-0.085547
7.240000	0.429187	0.148213	-0.280974	-0.333362	0.410012	-0.076650
7.245000	0.421976	0.155138	-0.266838	-0.333197	0.397687	-0.064490
7.250000	0.405935	0.159080	-0.246855	-0.326212	0.376889	-0.050677
7.255000	0.380906	0.157822	-0.223083	-0.311035	0.348713	-0.037678
7.260000	0.348613	0.150365	-0.198248	-0.288085	0.315730	-0.027645
7.265000	0.312373	0.137146	-0.175227	-0.259530	0.281516	-0.021986
7.270000	0.275596	0.119617	-0.155979	-0.228176	0.249170	-0.020994
7.275000	0.240712	0.100315	-0.140397	-0.196892	0.220033	-0.023141
7.280000	0.209258	0.081648	-0.127610	-0.167954	0.194491	-0.026536
7.285000	0.181678	0.064862	-0.116816	-0.142340	0.172336	-0.029996
7.290000	0.158123	0.050713	-0.107410	-0.120571	0.153305	-0.032734
7.295000	0.138420	0.039735	-0.098684	-0.102858	0.136892	-0.034034
7.300000	0.121802	0.031226	-0.090575	-0.088350	0.122616	-0.034265
7.305000	0.107428	0.023627	-0.083801	-0.075665	0.110406	-0.034742
7.310000	0.094793	0.016234	-0.078559	-0.064101	0.100085	-0.035984
7.315000	0.083556	0.009014	-0.074542	-0.053446	0.091278	-0.037833
7.320000	0.073873	0.002108	-0.071765	-0.043868	0.084084	-0.040217
7.325000	0.065765	-0.004825	-0.070590	-0.035184	0.078725	-0.043541
7.330000	0.058772	-0.011864	-0.070636	-0.027082	0.074713	-0.047631
7.335000	0.052940	-0.019126	-0.072065	-0.019522	0.072172	-0.052649
7.340000	0.048164	-0.026448	-0.074611	-0.012538	0.070884	-0.058347
7.345000	0.044349	-0.032824	-0.077173	-0.006654	0.070160	-0.063507
7.350000	0.041499	-0.037486	-0.078985	-0.002317	0.069562	-0.067245
7.355000	0.039528	-0.040339	-0.079867	0.000468	0.068932	-0.069400
7.360000	0.038269	-0.041635	-0.079904	0.001944	0.068227	-0.070171
7.365000	0.037519	-0.041855	-0.079374	0.002503	0.067488	-0.069992
7.370000	0.037099	-0.041573	-0.078672	0.002583	0.066840	-0.069423
7.375000	0.036877	-0.041175	-0.078052	0.002482	0.066354	-0.068836
7.380000	0.036803	-0.040813	-0.077616	0.002315	0.066060	-0.068375
7.385000	0.036862	-0.040556	-0.077418	0.002133	0.065979	-0.068112
7.390000	0.036943	-0.040470	-0.077414	0.002037	0.066024	-0.068060
7.395000	0.036986	-0.040485	-0.077471	0.002020	0.066082	-0.068102
7.400000	0.037028	-0.040499	-0.077527	0.002004	0.066138	-0.068143
7.405000	0.037103	-0.040447	-0.077551	0.001931	0.066196	-0.068126
7.410000	0.037249	-0.040275	-0.077524	0.001747	0.066265	-0.068011
7.415000	0.037443	-0.040012	-0.077455	0.001484	0.066336	-0.067820
7.420000	0.037615	-0.039712	-0.077327	0.001211	0.066361	-0.067572
7.425000	0.037720	-0.039444	-0.077164	0.000996	0.066328	-0.067324
7.430000	0.037694	-0.039211	-0.076905	0.000876	0.066164	-0.067040
7.435000	0.037611	-0.039014	-0.076625	0.000810	0.065954	-0.066764
7.440000	0.037552	-0.038850	-0.076401	0.000749	0.065791	-0.066540
7.445000	0.037529	-0.038684	-0.076213	0.000667	0.065669	-0.066335
7.450000	0.037549	-0.038559	-0.076107	0.000583	0.065619	-0.066202
7.455000	0.037612	-0.038504	-0.076116	0.000515	0.065661	-0.066176
7.460000	0.037681	-0.038427	-0.076108	0.000431	0.065696	-0.066127
7.465000	0.037762	-0.038275	-0.076037	0.000296	0.065702	-0.065998
7.470000	0.037889	-0.038130	-0.076019	0.000140	0.065764	-0.065904
7.475000	0.038050	-0.037918	-0.075968	-0.000076	0.065828	-0.065753
7.480000	0.038229	-0.037611	-0.075840	-0.000357	0.065858	-0.065501
7.485000	0.038372	-0.037303	-0.075675	-0.000617	0.065845	-0.065228
7.490000	0.038446	-0.036988	-0.075434	-0.000842	0.065749	-0.064906
7.495000	0.038474	-0.036636	-0.075110	-0.001062	0.065578	-0.064516
7.500000	0.038440	-0.036374	-0.074815	-0.001193	0.065388	-0.064195
7.505000	0.038378	-0.036287	-0.074665	-0.001207	0.065266	-0.064058
7.510000	0.038341	-0.036316	-0.074657	-0.001169	0.065240	-0.064070
7.515000	0.038331	-0.036348	-0.074678	-0.001145	0.065246	-0.064101
7.520000	0.038274	-0.036374	-0.074648	-0.001097	0.065196	-0.064098
7.525000	0.038172	-0.036401	-0.074574	-0.001023	0.065094	-0.064071
7.530000	0.038089	-0.036384	-0.074474	-0.000984	0.064988	-0.064004
7.535000	0.038051	-0.036293	-0.074344	-0.001014	0.064891	-0.063876
7.540000	0.038087	-0.036133	-0.074220	-0.001129	0.064841	-0.063712
7.545000	0.038228	-0.035880	-0.074108	-0.001355	0.064857	-0.063502
7.550000	0.038466	-0.035563	-0.074028	-0.001676	0.064948	-0.063272
7.555000	0.038761	-0.035258	-0.074020	-0.002022	0.065114	-0.063092
7.560000	0.039331	-0.034907	-0.074238	-0.002554	0.065569	-0.063015
7.565000	0.040125	-0.034490	-0.074614	-0.003253	0.066245	-0.062991
7.570000	0.040677	-0.034270	-0.074947	-0.003699	0.066755	-0.063056
7.575000	0.040782	-0.034371	-0.075153	-0.003702	0.066935	-0.063233
7.580000	0.040500	-0.034707	-0.075207	-0.003345	0.066804	-0.063459
7.585000	0.039986	-0.035172	-0.075157	-0.002779	0.066478	-0.063698
7.590000	0.039460	-0.035633	-0.075093	-0.002210	0.066137	-0.063927
7.595000	0.039039	-0.035854	-0.074893	-0.001839	0.065779	-0.063939
7.600000	0.038734	-0.035772	-0.074507	-0.001710	0.065380	-0.063670
7.605000	0.038535	-0.035499	-0.074034	-0.001753	0.064992	-0.063239
7.610000	0.038467	-0.035097	-0.073565	-0.001946	0.064682	-0.062736
7.615000	0.038564	-0.034679	-0.073244	-0.002243	0.064552	-0.062309
7.620000	0.038758	-0.034408	-0.073165	-0.002511	0.064619	-0.062108
7.625000	0.038976	-0.034283	-0.073258	-0.002710	0.064798	-0.062089
7.630000	0.039163	-0.034229	-0.073393	-0.002849	0.064984	-0.062136
7.635000	0.039230	-0.034202	-0.073433	-0.002903	0.065046	-0.062143
7.640000	0.039098	-0.034143	-0.073240	-0.002861	0.064858	-0.061997
7.645000	0.038852	-0.033998	-0.072850	-0.002802	0.064491	-0.061689
7.650000	0.038633	-0.033845	-0.072477	-0.002764	0.064149	-0.061385
7.655000	0.038512	-0.033730	-0.072242	-0.002761	0.063944	-0.061183
7.660000	0.038504	-0.033505	-0.072009	-0.002886	0.063805	-0.060919
7.665000	0.038650	-0.033154	-0.071804	-0.003173	0.063771	-0.060598
7.670000	0.039000	-0.032823	-0.071823	-0.003566	0.063984	-0.060418
7.675000	0.039488	-0.032547	-0.072035	-0.004008	0.064388	-0.060380
7.680000	0.039880	-0.032296	-0.072176	-0.004379	0.064696	-0.060317
7.685000	0.040051	-0.032099	-0.072150	-0.004591	0.064779	-0.060188
7.690000	0.040038	-0.032030	-0.072068	-0.004623	0.064724	-0.060101
7.695000	0.039953	-0.032067	-0.072019	-0.004553	0.064647	-0.060094
7.700000	0.039843	-0.032126	-0.071969	-0.004456	0.064555	-0.060099
7.705000	0.039758	-0.032250	-0.072007	-0.004335	0.064528	-0.060193
7.710000	0.039768	-0.032368	-0.072136	-0.004273	0.064608	-0.060336
7.715000	0.039891	-0.032358	-0.072249	-0.004350	0.064744	-0.060395
7.720000	0.040027	-0.032204	-0.072231	-0.004517	0.064812	-0.060295
7.725000	0.040158	-0.031923	-0.072081	-0.004755	0.064801	-0.060046
7.730000	0.040242	-0.031526	-0.071768	-0.005032	0.064669	-0.059637
7.735000	0.040213	-0.031111	-0.071323	-0.005255	0.064395	-0.059140
7.740000	0.040070	-0.030789	-0.070859	-0.005358	0.064045	-0.058687
7.745000	0.039889	-0.030571	-0.070460	-0.005380	0.063710	-0.058330
7.750000	0.039721	-0.030417	-0.070138	-0.005372	0.063428	-0.058056
7.755000	0.039590	-0.030354	-0.069944	-0.005332	0.063240	-0.057907
7.760000	0.039462	-0.030321	-0.069783	-0.005277	0.063073	-0.057795
7.765000	0.039375	-0.030255	-0.069630	-0.005265	0.062934	-0.057669
7.770000	0.039317	-0.030200	-0.069517	-0.005264	0.062835	-0.057571
7.775000	0.039254	-0.030153	-0.069407	-0.005254	0.062735	-0.057481
7.780000	0.039224	-0.030102	-0.069326	-0.005266	0.062671	-0.057405
7.785000	0.039263	-0.030048	-0.069311	-0.005320	0.062685	-0.057365
7.790000	0.039380	-0.029951	-0.069331	-0.005444	0.062764	-0.057320
7.795000	0.039559	-0.029793	-0.069352	-0.005638	0.062879	-0.057241
7.800000	0.039757	-0.029671	-0.069428	-0.005823	0.063038	-0.057215
7.805000	0.039935	-0.029571	-0.069506	-0.005984	0.063186	-0.057202
7.810000	0.040126	-0.029401	-0.069527	-0.006192	0.063308	-0.057116
7.815000	0.040245	-0.029201	-0.069446	-0.006376	0.063330	-0.056953
7.820000	0.040241	-0.029050	-0.069291	-0.006462	0.063238	-0.056777
7.825000	0.040125	-0.028966	-0.069091	-0.006443	0.063056	-0.056613
7.830000	0.039986	-0.028906	-0.068892	-0.006397	0.062860	-0.056463
7.835000	0.039894	-0.028806	-0.068700	-0.006402	0.062697	-0.056295
7.840000	0.039847	-0.028700	-0.068547	-0.006435	0.062581	-0.056146
7.845000	0.039819	-0.028603	-0.068423	-0.006476	0.062494	-0.056018
7.850000	0.039843	-0.028523	-0.068366	-0.006536	0.062474	-0.055938
7.855000	0.039863	-0.028448	-0.068311	-0.006591	0.062454	-0.055863
7.860000	0.039898	-0.028277	-0.068176	-0.006709	0.062397	-0.055687
7.865000	0.039939	-0.027971	-0.067911	-0.006910	0.062267	-0.055357
7.870000	0.039904	-0.027612	-0.067516	-0.007097	0.062019	-0.054922
7.875000	0.039777	-0.027244	-0.067022	-0.007236	0.061660	-0.054424
7.880000	0.039662	-0.026821	-0.066483	-0.007414	0.061283	-0.053869
7.885000	0.039672	-0.026481	-0.066153	-0.007616	0.061098	-0.053482
7.890000	0.039738	-0.026401	-0.066139	-0.007700	0.061129	-0.053428
7.895000	0.039807	-0.026496	-0.066303	-0.007685	0.061262	-0.053578
7.900000	0.039864	-0.026637	-0.066501	-0.007636	0.061409	-0.053773
7.905000	0.039895	-0.026652	-0.066547	-0.007646	0.061454	-0.053809
7.910000	0.039945	-0.026493	-0.066438	-0.007766	0.061420	-0.053654
7.915000	0.040004	-0.026290	-0.066293	-0.007918	0.061370	-0.053453
7.920000	0.040013	-0.026115	-0.066128	-0.008024	0.061280	-0.053256
7.925000	0.039982	-0.025981	-0.065962	-0.008084	0.061167	-0.053083
7.930000	0.039965	-0.025891	-0.065856	-0.008126	0.061096	-0.052970
7.935000	0.040023	-0.025926	-0.065948	-0.008139	0.061182	-0.053043
7.940000	0.040123	-0.026005	-0.066128	-0.008151	0.061344	-0.053193
7.945000	0.040169	-0.025974	-0.066143	-0.008196	0.061379	-0.053184
7.950000	0.040151	-0.025829	-0.065981	-0.008269	0.061275	-0.053006
7.955000	0.040076	-0.025670	-0.065746	-0.008317	0.061097	-0.052780
7.960000	0.039937	-0.025445	-0.065382	-0.008367	0.060806	-0.052439
7.965000	0.039802	-0.025099	-0.064901	-0.008489	0.060451	-0.051962
7.970000	0.039691	-0.024740	-0.064431	-0.008632	0.060115	-0.051483
7.975000	0.039558	-0.024471	-0.064029	-0.008711	0.059806	-0.051095
7.980000	0.039407	-0.024370	-0.063777	-0.008682	0.059573	-0.050892
7.985000	0.039298	-0.024450	-0.063748	-0.008573	0.059494	-0.050921
7.990000	0.039278	-0.024619	-0.063897	-0.008464	0.059568	-0.051104
7.995000	0.039362	-0.024718	-0.064081	-0.008455	0.059723	-0.051268
8.000000	0.039481	-0.024723	-0.064204	-0.008520	0.059862	-0.051342
8.005000	0.039562	-0.024676	-0.064238	-0.008594	0.059929	-0.051335
8.010000	0.039578	-0.024535	-0.064114	-0.008685	0.059867	-0.051182
8.015000	0.039574	-0.024324	-0.063898	-0.008805	0.059739	-0.050935
8.020000	0.039540	-0.024099	-0.063639	-0.008915	0.059571	-0.050656
8.025000	0.039474	-0.023796	-0.063271	-0.009052	0.059320	-0.050268
8.030000	0.039427	-0.023465	-0.062892	-0.009215	0.059074	-0.049859
8.035000	0.039416	-0.023249	-0.062665	-0.009334	0.058937	-0.049603
8.040000	0.039425	-0.023153	-0.062578	-0.009394	0.058891	-0.049497
8.045000	0.039434	-0.023035	-0.062469	-0.009468	0.058834	-0.049366
8.050000	0.039460	-0.022860	-0.062320	-0.009584	0.058763	-0.049179
8.055000	0.039498	-0.022700	-0.062198	-0.009699	0.058715	-0.049016
8.060000	0.039537	-0.022586	-0.062124	-0.009787	0.058694	-0.048907
8.065000	0.039556	-0.022556	-0.062113	-0.009815	0.058699	-0.048884
8.070000	0.039497	-0.022603	-0.062100	-0.009754	0.058657	-0.048903
8.075000	0.039364	-0.022618	-0.061982	-0.009668	0.058512	-0.048844
8.080000	0.039219	-0.022532	-0.061750	-0.009634	0.058294	-0.048660
8.085000	0.039091	-0.022415	-0.061506	-0.009628	0.058079	-0.048452
8.090000	0.038926	-0.022370	-0.061296	-0.009558	0.057863	-0.048305
8.095000	0.038721	-0.022359	-0.061080	-0.009446	0.057620	-0.048173
8.100000	0.038612	-0.022295	-0.060907	-0.009420	0.057457	-0.048037
8.105000	0.038628	-0.022113	-0.060741	-0.009535	0.057371	-0.047835
8.110000	0.038740	-0.021794	-0.060534	-0.009784	0.057316	-0.047532
8.115000	0.038934	-0.021476	-0.060411	-0.010079	0.057357	-0.047278
8.120000	0.039147	-0.021249	-0.060396	-0.010334	0.057471	-0.047137
8.125000	0.039323	-0.021054	-0.060376	-0.010548	0.057561	-0.047014
8.130000	0.039457	-0.020827	-0.060284	-0.010756	0.057585	-0.046829
8.135000	0.039519	-0.020608	-0.060127	-0.010919	0.057531	-0.046612
8.140000	0.039540	-0.020458	-0.059998	-0.011017	0.057468	-0.046451
8.145000	0.039512	-0.020333	-0.059845	-0.011073	0.057364	-0.046291
8.150000	0.039453	-0.020230	-0.059682	-0.011098	0.057235	-0.046137
8.155000	0.039352	-0.020165	-0.059516	-0.011077	0.057081	-0.046004
8.160000	0.039254	-0.020167	-0.059421	-0.011020	0.056970	-0.045950
8.165000	0.039231	-0.020189	-0.059420	-0.010994	0.056956	-0.045962
8.170000	0.039241	-0.020178	-0.059419	-0.011006	0.056961	-0.045955
8.175000	0.039212	-0.020126	-0.059338	-0.011019	0.056898	-0.045879
8.180000	0.039077	-0.020042	-0.059118	-0.010990	0.056693	-0.045703
8.185000	0.038835	-0.019962	-0.058796	-0.010896	0.056367	-0.045471
8.190000	0.038643	-0.019890	-0.058533	-0.010827	0.056104	-0.045277
8.195000	0.038610	-0.019784	-0.058394	-0.010869	0.056005	-0.045136
8.200000	0.038725	-0.019742	-0.058466	-0.010960	0.056113	-0.045154
8.205000	0.038881	-0.019825	-0.058706	-0.011002	0.056342	-0.045340
8.210000	0.039019	-0.020087	-0.059106	-0.010931	0.056652	-0.045722
8.215000	0.039126	-0.020788	-0.059914	-0.010588	0.057180	-0.046593
8.220000	0.039234	-0.021551	-0.060785	-0.010209	0.057746	-0.047537
8.225000	0.039624	-0.021077	-0.060701	-0.010708	0.057923	-0.047215
8.230000	0.041199	-0.018398	-0.059598	-0.013164	0.058195	-0.045031
8.235000	0.044903	-0.013466	-0.058369	-0.018150	0.059624	-0.041474
8.240000	0.050728	-0.005776	-0.056504	-0.025953	0.061910	-0.035957
8.245000	0.057939	0.005033	-0.052906	-0.036357	0.063997	-0.027640
8.250000	0.066307	0.018013	-0.048294	-0.048682	0.066165	-0.017483
8.255000	0.075050	0.031672	-0.043378	-0.061616	0.068375	-0.006759
8.260000	0.082574	0.044088	-0.038485	-0.073128	0.069893	0.003235
8.265000	0.087480	0.053177	-0.034303	-0.081208	0.070312	0.010897
8.270000	0.088866	0.057904	-0.030962	-0.084737	0.069183	0.015555
8.275000	0.086970	0.058035	-0.028935	-0.083719	0.066918	0.016801
8.280000	0.082527	0.053787	-0.028740	-0.078701	0.064240	0.014461
8.285000	0.075959	0.044986	-0.030973	-0.069827	0.061737	0.008090
8.290000	0.067660	0.032160	-0.035500	-0.057631	0.059559	-0.001929
8.295000	0.058780	0.017604	-0.041176	-0.044100	0.057709	-0.013609
8.300000	0.050765	0.004185	-0.046579	-0.031726	0.056202	-0.024476
8.305000	0.044586	-0.006230	-0.050816	-0.022145	0.055080	-0.032935
8.310000	0.040476	-0.013139	-0.053615	-0.015783	0.054323	-0.038541
8.315000	0.038095	-0.016948	-0.055043	-0.012209	0.053773	-0.041564
8.320000	0.036931	-0.018545	-0.055477	-0.010615	0.053352	-0.042737
8.325000	0.036529	-0.018879	-0.055408	-0.010191	0.053080	-0.042889
8.330000	0.036522	-0.018615	-0.055137	-0.010339	0.052919	-0.042580
8.335000	0.036681	-0.018195	-0.054876	-0.010673	0.052860	-0.042188
8.340000	0.036813	-0.017887	-0.054699	-0.010927	0.052835	-0.041907
8.345000	0.036882	-0.017728	-0.054610	-0.011059	0.052823	-0.041764
8.350000	0.036878	-0.017634	-0.054512	-0.011110	0.052764	-0.041654
8.355000	0.036785	-0.017611	-0.054396	-0.011070	0.052643	-0.041573
8.360000	0.036619	-0.017645	-0.054264	-0.010955	0.052472	-0.041517
8.365000	0.035903	-0.019384	-0.055287	-0.009537	0.052648	-0.043111
8.370000	0.031065	-0.031048	-0.062113	-0.000010	0.053796	-0.053786
8.375000	0.016681	-0.064231	-0.080912	0.027453	0.056345	-0.083798
8.380000	-0.005706	-0.125337	-0.119631	0.075658	0.065775	-0.141432
8.385000	-0.018334	-0.210824	-0.192490	0.132305	0.100549	-0.232854
8.390000	0.009937	-0.303714	-0.313651	0.169613	0.186823	-0.356436
8.395000	0.103255	-0.375307	-0.478562	0.157069	0.335912	-0.492981
8.400000	0.261488	-0.394472	-0.655959	0.076778	0.529688	-0.606466
8.405000	0.455052	-0.340484	-0.795536	-0.066146	0.722027	-0.655881
8.410000	0.635734	-0.211535	-0.847269	-0.244911	0.856211	-0.611300
8.415000	0.759362	-0.024295	-0.783657	-0.424391	0.890862	-0.466471
8.420000	0.803213	0.188784	-0.614430	-0.572730	0.818476	-0.245747
8.425000	0.770441	0.388467	-0.381974	-0.669095	0.665347	0.003749
8.430000	0.680727	0.539351	-0.141376	-0.704412	0.474641	0.229771
8.435000	0.558209	0.617358	0.059149	-0.678714	0.288132	0.390582
8.440000	0.425347	0.616960	0.191613	-0.601776	0.134947	0.466830
8.445000	0.300203	0.553035	0.252832	-0.492617	0.027350	0.465267
8.450000	0.194777	0.453869	0.259092	-0.374495	-0.037133	0.411628
8.455000	0.114571	0.349379	0.234807	-0.267862	-0.069418	0.337280
8.460000	0.059595	0.261097	0.201502	-0.185152	-0.081930	0.267082
8.465000	0.026400	0.198449	0.172049	-0.129817	-0.084090	0.213907
8.470000	0.010034	0.160753	0.150719	-0.098603	-0.081225	0.179828
8.475000	0.004868	0.141915	0.137047	-0.084745	-0.076314	0.161059
8.480000	0.005693	0.134477	0.128784	-0.080927	-0.071067	0.151994
8.485000	0.008644	0.131746	0.123103	-0.081054	-0.066083	0.147137
8.490000	0.011655	0.129696	0.118041	-0.081609	-0.061422	0.143031
8.495000	0.014434	0.127000	0.112566	-0.081657	-0.056656	0.138314
8.500000	0.017701	0.123735	0.106034	-0.081658	-0.050999	0.132657
8.505000	0.022207	0.120530	0.098323	-0.082409	-0.043946	0.126355
8.510000	0.028163	0.117931	0.089768	-0.084348	-0.035568	0.119915
8.515000	0.034829	0.115943	0.081114	-0.087048	-0.026722	0.113771
8.520000	0.041392	0.114585	0.073193	-0.090053	-0.018361	0.108414
8.525000	0.047729	0.113869	0.066140	-0.093299	-0.010630	0.103928
8.530000	0.053711	0.113616	0.059905	-0.096606	-0.003576	0.100183
8.535000	0.058921	0.113502	0.054581	-0.099548	0.002506	0.097043
8.540000	0.063140	0.113233	0.050093	-0.101829	0.007533	0.094296
8.545000	0.067000	0.112181	0.045181	-0.103451	0.012598	0.090853
8.550000	0.071170	0.109668	0.038497	-0.104407	0.018864	0.085543
8.555000	0.075571	0.105913	0.030342	-0.104780	0.026113	0.078667
8.560000	0.080103	0.101757	0.021655	-0.104997	0.033745	0.071252
8.565000	0.084968	0.097937	0.012969	-0.105600	0.041568	0.064032
8.570000	0.089774	0.095031	0.005257	-0.106697	0.048796	0.057902
8.575000	0.094072	0.093145	-0.000927	-0.108090	0.054848	0.053242
8.580000	0.098117	0.091973	-0.006144	-0.109749	0.060195	0.049554
8.585000	0.102534	0.091496	-0.011038	-0.112023	0.065571	0.046452
8.590000	0.107487	0.091629	-0.015858	-0.114960	0.071213	0.043746
8.595000	0.113157	0.092074	-0.021083	-0.118491	0.077504	0.040987
8.600000	0.119368	0.092304	-0.027065	-0.122209	0.084543	0.037666
8.605000	0.125731	0.092121	-0.033610	-0.125777	0.091995	0.033782
8.610000	0.132189	0.091769	-0.040420	-0.129302	0.099656	0.029646
8.615000	0.138588	0.091579	-0.047009	-0.132887	0.107154	0.025732
8.620000	0.145048	0.091477	-0.053571	-0.136558	0.114673	0.021885
8.625000	0.152114	0.091412	-0.060702	-0.140600	0.122870	0.017730
8.630000	0.160103	0.091372	-0.068732	-0.145189	0.132118	0.013071
8.635000	0.168409	0.090985	-0.077423	-0.149761	0.141931	0.007830
8.640000	0.176844	0.089730	-0.087114	-0.153906	0.152396	0.001510
8.645000	0.185986	0.087512	-0.098474	-0.157904	0.164233	-0.006329
8.650000	0.195948	0.084374	-0.111574	-0.161844	0.177548	-0.015704
8.655000	0.206320	0.080407	-0.125913	-0.165542	0.191815	-0.026273
8.660000	0.216544	0.075443	-0.141101	-0.168579	0.206486	-0.037907
8.665000	0.227115	0.070075	-0.157040	-0.171582	0.221792	-0.050210
8.670000	0.239133	0.066145	-0.172989	-0.176252	0.237939	-0.061687
8.675000	0.253054	0.065211	-0.187843	-0.183750	0.254552	-0.070802
8.680000	0.268718	0.067820	-0.200898	-0.194300	0.271132	-0.076832
8.685000	0.285585	0.074023	-0.211562	-0.207619	0.287028	-0.079408
8.690000	0.303079	0.082799	-0.220280	-0.222787	0.302162	-0.079375
8.695000	0.320438	0.092738	-0.227700	-0.238547	0.316467	-0.077920
8.700000	0.336568	0.102835	-0.233734	-0.253689	0.329264	-0.075575
8.705000	0.350336	0.112326	-0.238010	-0.267118	0.339682	-0.072564
8.710000	0.361385	0.120913	-0.240471	-0.278455	0.347482	-0.069027
8.715000	0.369086	0.128934	-0.240152	-0.287532	0.351744	-0.064211
8.720000	0.371845	0.136778	-0.235067	-0.293654	0.350401	-0.056747
8.725000	0.367732	0.144368	-0.223364	-0.295661	0.341269	-0.045608
8.730000	0.355072	0.149842	-0.205230	-0.291512	0.323491	-0.031978
8.735000	0.333196	0.150730	-0.182465	-0.279395	0.297717	-0.018322
8.740000	0.303203	0.145388	-0.157815	-0.258994	0.266169	-0.007175
8.745000	0.267979	0.133904	-0.134075	-0.232027	0.232126	-0.000099
8.750000	0.231055	0.117475	-0.113580	-0.201224	0.198975	0.002249
8.755000	0.195202	0.098417	-0.096785	-0.169521	0.168579	0.000942
8.760000	0.162272	0.079300	-0.082972	-0.139472	0.141592	-0.002120
8.765000	0.133176	0.061676	-0.071500	-0.112498	0.118170	-0.005672
8.770000	0.108159	0.046472	-0.061687	-0.089276	0.098061	-0.008784
8.775000	0.087205	0.034531	-0.052675	-0.070284	0.080760	-0.010475
8.780000	0.069700	0.025673	-0.044027	-0.055064	0.065660	-0.010596
8.785000	0.054689	0.018200	-0.036489	-0.042083	0.052641	-0.010559
8.790000	0.041543	0.010852	-0.030691	-0.030250	0.041704	-0.011454
8.795000	0.029778	0.003451	-0.026327	-0.019184	0.032392	-0.013208
8.800000	0.019379	-0.003685	-0.023064	-0.009061	0.024504	-0.015444
8.805000	0.010669	-0.010659	-0.021328	-0.000006	0.018474	-0.018467
8.810000	0.003351	-0.017672	-0.021022	0.008268	0.014072	-0.022340
8.815000	-0.002684	-0.024814	-0.022130	0.015876	0.011227	-0.027104
8.820000	-0.007552	-0.032120	-0.024568	0.022905	0.009824	-0.032729
8.825000	-0.011645	-0.038861	-0.027215	0.029159	0.008989	-0.038149
8.830000	-0.015054	-0.044132	-0.029078	0.034171	0.008097	-0.042268
8.835000	-0.017635	-0.047630	-0.029995	0.037681	0.007136	-0.044817
8.840000	-0.019327	-0.049546	-0.030219	0.039764	0.006288	-0.046052
8.845000	-0.020266	-0.050269	-0.030003	0.040723	0.005622	-0.046345
8.850000	-0.020712	-0.050341	-0.029629	0.041023	0.005148	-0.046171
8.855000	-0.020877	-0.050252	-0.029375	0.041066	0.004906	-0.045973
8.860000	-0.020907	-0.050195	-0.029288	0.041051	0.004839	-0.045889
8.865000	-0.020887	-0.050111	-0.029224	0.040991	0.004813	-0.045804
8.870000	-0.020876	-0.049932	-0.029057	0.040881	0.004723	-0.045604
8.875000	-0.020883	-0.049659	-0.028776	0.040728	0.004557	-0.045285
8.880000	-0.020768	-0.049345	-0.028577	0.040480	0.004508	-0.044989
8.885000	-0.020507	-0.048968	-0.028461	0.040112	0.004592	-0.044704
8.890000	-0.020177	-0.048541	-0.028364	0.039675	0.004726	-0.044401
8.895000	-0.019954	-0.048132	-0.028178	0.039310	0.004748	-0.044058
8.900000	-0.019927	-0.047820	-0.027893	0.039114	0.004599	-0.043713
