Time	Lead I	Lead II	Lead III	aVR	aVL	aVF
0.000000	-0.000514	-0.000191	0.000323	0.000407	-0.000483	0.000076
0.005000	-0.013070	-0.004542	0.008528	0.010169	-0.012470	0.002301
0.010000	-0.062681	-0.018111	0.044570	0.046645	-0.061922	0.015276
0.015000	-0.155645	-0.035455	0.120190	0.110332	-0.159253	0.048922
0.020000	-0.275123	-0.046696	0.228427	0.185802	-0.290724	0.104922
0.025000	-0.397568	-0.046049	0.351519	0.256122	-0.432485	0.176363
0.030000	-0.505621	-0.034245	0.471376	0.311692	-0.564069	0.252378
0.035000	-0.590673	-0.016773	0.573900	0.350709	-0.672366	0.321657
0.040000	-0.652778	0.001327	0.654106	0.376115	-0.754530	0.378414
0.045000	-0.697719	0.018360	0.716079	0.392228	-0.816256	0.424028
0.050000	-0.731803	0.033665	0.765468	0.403070	-0.864449	0.461379
0.055000	-0.759212	0.045880	0.805092	0.411843	-0.903151	0.491308
0.060000	-0.782615	0.055475	0.838090	0.419814	-0.935714	0.515900
0.065000	-0.803795	0.063723	0.867518	0.427280	-0.964933	0.537652
0.070000	-0.824141	0.071512	0.895652	0.434530	-0.992922	0.558392
0.075000	-0.845125	0.079987	0.925112	0.441752	-1.022046	0.580294
0.080000	-0.867842	0.090353	0.958195	0.448884	-1.054263	0.605379
0.085000	-0.892586	0.102972	0.995558	0.455884	-1.090120	0.634236
0.090000	-0.918624	0.117621	1.036245	0.462459	-1.128643	0.666184
0.095000	-0.944615	0.133490	1.078105	0.468303	-1.167817	0.699514
0.100000	-0.969166	0.148831	1.117997	0.473620	-1.205024	0.731404
0.105000	-0.990479	0.161928	1.152407	0.478364	-1.237196	0.758832
0.110000	-1.007190	0.172217	1.179407	0.482072	-1.262432	0.780360
0.115000	-1.019543	0.179468	1.199011	0.485017	-1.280882	0.795865
0.120000	-1.028923	0.182703	1.211626	0.488565	-1.293581	0.805016
0.125000	-1.036916	0.182225	1.219141	0.493455	-1.302534	0.809079
0.130000	-1.044351	0.179629	1.223980	0.499247	-1.309621	0.810374
0.135000	-1.050434	0.175664	1.226098	0.505049	-1.314356	0.809307
0.140000	-1.053461	0.169970	1.223431	0.510083	-1.314563	0.804480
0.145000	-1.052762	0.162346	1.215108	0.514081	-1.309355	0.795273
0.150000	-1.048873	0.152674	1.201546	0.517420	-1.299279	0.781859
0.155000	-1.042226	0.141277	1.183503	0.520163	-1.285025	0.764861
0.160000	-1.033362	0.129205	1.162567	0.522015	-1.267820	0.745805
0.165000	-1.022449	0.117358	1.139807	0.522555	-1.248379	0.725824
0.170000	-1.008682	0.106753	1.115435	0.520728	-1.226359	0.705630
0.175000	-0.991522	0.098461	1.089984	0.515609	-1.201758	0.686149
0.180000	-0.970668	0.091450	1.062118	0.507617	-1.173629	0.666013
0.185000	-0.946364	0.083044	1.029408	0.498437	-1.140712	0.642274
0.190000	-0.919307	0.072017	0.991324	0.489183	-1.103103	0.613920
0.195000	-0.890437	0.059688	0.950124	0.479633	-1.062648	0.583015
0.200000	-0.860213	0.047979	0.908191	0.468944	-1.020988	0.552045
0.205000	-0.825276	0.034711	0.859987	0.456433	-0.972987	0.516554
0.210000	-0.775832	0.012970	0.788802	0.440438	-0.903341	0.462903
0.215000	-0.706447	-0.020068	0.686378	0.419454	-0.804148	0.384694
0.220000	-0.619153	-0.061543	0.557610	0.393000	-0.679404	0.286404
0.225000	-0.518770	-0.107461	0.411308	0.361555	-0.536981	0.175426
0.230000	-0.410129	-0.157943	0.252186	0.327976	-0.382387	0.054411
0.235000	-0.297587	-0.216974	0.080614	0.297082	-0.218354	-0.078727
0.240000	-0.184947	-0.288206	-0.103259	0.273175	-0.047163	-0.226013
0.245000	-0.075265	-0.373256	-0.297991	0.258954	0.128590	-0.387544
0.250000	0.029763	-0.470924	-0.500687	0.254704	0.306256	-0.560960
0.255000	0.129796	-0.576656	-0.706452	0.257995	0.482807	-0.740802
0.260000	0.224760	-0.683697	-0.908457	0.264967	0.654263	-0.919230
0.265000	0.314448	-0.785341	-1.099790	0.271870	0.816510	-1.088380
0.270000	0.397212	-0.876079	-1.273291	0.276474	0.964465	-1.240939
0.275000	0.469652	-0.950478	-1.420130	0.277605	1.091066	-1.368670
0.280000	0.528090	-1.002288	-1.530377	0.273778	1.188456	-1.462234
0.285000	0.570867	-1.026228	-1.597095	0.262903	1.251673	-1.514576
0.290000	0.597830	-1.020271	-1.618101	0.243897	1.279368	-1.523264
0.295000	0.607108	-0.987619	-1.594726	0.219688	1.271229	-1.490917
0.300000	0.593830	-0.935614	-1.529444	0.197329	1.225873	-1.423201
0.305000	0.552452	-0.872047	-1.424500	0.184518	1.141393	-1.325911
0.310000	0.480477	-0.801413	-1.281889	0.185293	1.017502	-1.202795
0.315000	0.380970	-0.724898	-1.105868	0.198567	0.858426	-1.056993
0.320000	0.263421	-0.643587	-0.907007	0.219489	0.675747	-0.895236
0.325000	0.139268	-0.558751	-0.698019	0.242189	0.483407	-0.725596
0.330000	0.016713	-0.469618	-0.486331	0.261485	0.290432	-0.551917
0.335000	-0.098720	-0.375103	-0.276383	0.273562	0.102574	-0.376136
0.340000	-0.203402	-0.277444	-0.074041	0.277616	-0.074686	-0.202930
0.345000	-0.295224	-0.182618	0.112606	0.275882	-0.235461	-0.040421
0.350000	-0.373622	-0.098895	0.274727	0.272808	-0.374325	0.101517
0.355000	-0.439185	-0.032599	0.406585	0.272385	-0.488305	0.215921
0.360000	-0.492577	0.014851	0.507428	0.275815	-0.577353	0.301537
0.365000	-0.535869	0.046755	0.582623	0.282390	-0.645761	0.363371
0.370000	-0.572132	0.067877	0.640008	0.291132	-0.699829	0.408697
0.375000	-0.603721	0.082363	0.686084	0.301006	-0.744669	0.443663
0.380000	-0.631670	0.093082	0.724752	0.310954	-0.783130	0.472176
0.385000	-0.656565	0.101704	0.758268	0.320349	-0.816854	0.496505
0.390000	-0.679005	0.108987	0.787992	0.329100	-0.846970	0.517870
0.395000	-0.700324	0.116501	0.816824	0.337070	-0.875925	0.538855
0.400000	-0.722011	0.125249	0.847260	0.344540	-0.906018	0.561478
0.405000	-0.744851	0.135348	0.880199	0.351897	-0.938223	0.586326
0.410000	-0.769487	0.147661	0.917148	0.359011	-0.973779	0.614768
0.415000	-0.795612	0.162665	0.958277	0.365432	-1.012608	0.647176
0.420000	-0.821802	0.178548	1.000350	0.371382	-1.052019	0.680637
0.425000	-0.846475	0.193312	1.039787	0.377104	-1.089033	0.711930
0.430000	-0.867777	0.206400	1.074176	0.381846	-1.121186	0.739340
0.435000	-0.884303	0.217081	1.101383	0.385221	-1.146436	0.761215
0.440000	-0.896415	0.224229	1.120644	0.388087	-1.164549	0.776463
0.445000	-0.905738	0.227369	1.133107	0.391656	-1.177127	0.785471
0.450000	-0.913799	0.226730	1.140529	0.396679	-1.186066	0.789387
0.455000	-0.921220	0.223583	1.144803	0.402781	-1.192818	0.790037
0.460000	-0.927232	0.219404	1.146636	0.408664	-1.197348	0.788684
0.465000	-0.930146	0.214036	1.144182	0.413446	-1.197613	0.784168
0.470000	-0.929168	0.206195	1.135363	0.417409	-1.191957	0.774548
0.475000	-0.924858	0.195599	1.120457	0.421037	-1.180862	0.759825
0.480000	-0.917988	0.183767	1.101755	0.423902	-1.166098	0.742196
0.485000	-0.909194	0.171555	1.080748	0.425876	-1.148893	0.723017
0.490000	-0.898358	0.159307	1.057665	0.426691	-1.129310	0.702618
0.495000	-0.884741	0.148932	1.033674	0.424819	-1.107597	0.682777
0.500000	-0.867732	0.141244	1.008977	0.419438	-1.083518	0.664080
0.505000	-0.846766	0.134145	0.980911	0.411432	-1.055210	0.643778
0.510000	-0.822224	0.125532	0.947756	0.402235	-1.021898	0.619662
0.515000	-0.795082	0.114667	0.909750	0.392837	-0.984285	0.591447
0.520000	-0.766195	0.102085	0.868279	0.383424	-0.943664	0.560240
0.525000	-0.735787	0.089477	0.825264	0.373147	-0.901273	0.528126
0.530000	-0.699575	0.075390	0.774965	0.360373	-0.851326	0.490953
0.535000	-0.647573	0.053080	0.700653	0.343230	-0.778399	0.435168
0.540000	-0.575294	0.019321	0.594614	0.320991	-0.675447	0.354455
0.545000	-0.485374	-0.022711	0.462663	0.293343	-0.547350	0.254007
0.550000	-0.382557	-0.069854	0.312703	0.261200	-0.401408	0.140209
0.555000	-0.271964	-0.123452	0.148512	0.228294	-0.242762	0.014468
0.560000	-0.158401	-0.186393	-0.027992	0.199067	-0.075292	-0.123775
0.565000	-0.045750	-0.261105	-0.215355	0.177163	0.097921	-0.275084
0.570000	0.063202	-0.349548	-0.412750	0.165322	0.274791	-0.440113
0.575000	0.167249	-0.449904	-0.617153	0.163191	0.452874	-0.616065
0.580000	0.266162	-0.556301	-0.822464	0.167512	0.628518	-0.796030
0.585000	0.359986	-0.662653	-1.022639	0.174745	0.798258	-0.973003
0.590000	0.448320	-0.763147	-1.211466	0.181765	0.958277	-1.140043
0.595000	0.528873	-0.851238	-1.380111	0.186117	1.102152	-1.288270
0.600000	0.598128	-0.921050	-1.519178	0.186439	1.222427	-1.408866
0.605000	0.652884	-0.967242	-1.620126	0.181494	1.312322	-1.493816
0.610000	0.691980	-0.984767	-1.676746	0.169041	1.367584	-1.536625
0.615000	0.715161	-0.972542	-1.687703	0.148599	1.387294	-1.535893
0.620000	0.720019	-0.935610	-1.655629	0.124472	1.371581	-1.496052
0.625000	0.701031	-0.881052	-1.582084	0.103935	1.318156	-1.422092
0.630000	0.652860	-0.815511	-1.468371	0.093907	1.224692	-1.318600
0.635000	0.574236	-0.743649	-1.317885	0.097811	1.092416	-1.190226
0.640000	0.469845	-0.667009	-1.136855	0.113833	0.927628	-1.041461
0.645000	0.349905	-0.585671	-0.935576	0.136119	0.742173	-0.878292
0.650000	0.225410	-0.500226	-0.725636	0.158665	0.549087	-0.707752
0.655000	0.103985	-0.410256	-0.514241	0.176825	0.356933	-0.533758
0.660000	-0.009438	-0.314837	-0.305398	0.187220	0.170873	-0.358093
0.665000	-0.111666	-0.216936	-0.105269	0.189718	-0.003693	-0.186025
0.670000	-0.200709	-0.124014	0.076695	0.187478	-0.160159	-0.027320
0.675000	-0.276619	-0.043939	0.232680	0.185074	-0.294044	0.108970
0.680000	-0.340270	0.018802	0.359071	0.185599	-0.403764	0.218165
0.685000	-0.392151	0.063113	0.455264	0.189971	-0.489255	0.299285
0.690000	-0.434322	0.092065	0.526387	0.197602	-0.554666	0.357063
0.695000	-0.469937	0.111261	0.581198	0.207081	-0.606873	0.399791
0.700000	-0.501023	0.124882	0.625904	0.217165	-0.650631	0.433466
0.705000	-0.528318	0.134722	0.663040	0.227243	-0.687831	0.460588
0.710000	-0.552690	0.142677	0.695367	0.236721	-0.720566	0.483844
0.715000	-0.574997	0.150463	0.725459	0.245105	-0.750818	0.505714
0.720000	-0.596488	0.158899	0.755387	0.252642	-0.780505	0.527863
0.725000	-0.618625	0.168495	0.787120	0.259882	-0.811607	0.551724
0.730000	-0.642585	0.179681	0.822266	0.267257	-0.845732	0.578474
0.735000	-0.668377	0.192628	0.861005	0.274673	-0.882988	0.608315
0.740000	-0.694978	0.207168	0.902146	0.281637	-0.922100	0.640463
0.745000	-0.721021	0.222279	0.943300	0.287949	-0.960896	0.672947
0.750000	-0.745011	0.236475	0.981485	0.293603	-0.996792	0.703189
0.755000	-0.765040	0.248503	1.013543	0.298223	-1.026865	0.728643
0.760000	-0.780271	0.257968	1.038239	0.301552	-1.049917	0.748365
0.765000	-0.791693	0.264532	1.056226	0.304356	-1.066896	0.762540
0.770000	-0.800867	0.267011	1.067878	0.308222	-1.078920	0.770699
0.775000	-0.809135	0.265509	1.074643	0.313862	-1.087599	0.773737
0.780000	-0.816796	0.261834	1.078630	0.320408	-1.094325	0.773917
0.785000	-0.822504	0.256811	1.079315	0.326603	-1.098016	0.771413
0.790000	-0.824652	0.250128	1.074780	0.331701	-1.096637	0.764936
0.795000	-0.823133	0.241570	1.064703	0.335765	-1.089942	0.754177
0.800000	-0.818689	0.231052	1.049741	0.339272	-1.078738	0.739465
0.805000	-0.811872	0.218932	1.030804	0.342334	-1.063869	0.721535
0.810000	-0.803176	0.206164	1.009340	0.344685	-1.046457	0.701771
0.815000	-0.792299	0.194160	0.986458	0.345335	-1.026965	0.681630
0.820000	-0.778324	0.184215	0.962539	0.343009	-1.005088	0.662079
0.825000	-0.760642	0.176388	0.937030	0.337319	-0.980151	0.642832
0.830000	-0.739057	0.169064	0.908120	0.329085	-0.950998	0.621912
0.835000	-0.714177	0.159954	0.874130	0.319981	-0.917009	0.597028
0.840000	-0.686937	0.148214	0.835151	0.311031	-0.878777	0.567746
0.845000	-0.658271	0.135608	0.793879	0.301760	-0.838399	0.536639
0.850000	-0.628071	0.123964	0.752036	0.291046	-0.796805	0.505759
0.855000	-0.590996	0.110906	0.701902	0.277180	-0.746455	0.469275
0.860000	-0.537254	0.089810	0.627064	0.258332	-0.672219	0.413887
0.865000	-0.462847	0.057119	0.519966	0.234247	-0.567427	0.333180
0.870000	-0.370321	0.014442	0.384762	0.205467	-0.435947	0.230480
0.875000	-0.264780	-0.035770	0.229010	0.173523	-0.285090	0.111567
0.880000	-0.151816	-0.093807	0.058009	0.141811	-0.121143	-0.020668
0.885000	-0.036662	-0.161882	-0.125220	0.114629	0.051129	-0.165758
0.890000	0.076420	-0.241841	-0.318260	0.095506	0.227869	-0.323374
0.895000	0.184834	-0.334125	-0.518959	0.086193	0.406335	-0.492528
0.900000	0.287932	-0.436482	-0.724413	0.085765	0.584477	-0.670243
0.905000	0.385831	-0.543697	-0.929529	0.091144	0.759423	-0.850567
0.910000	0.478521	-0.649222	-1.127743	0.098554	0.927376	-1.025931
0.915000	0.565232	-0.746933	-1.312166	0.104905	1.083916	-1.188821
0.920000	0.643497	-0.831513	-1.475010	0.108551	1.223120	-1.331671
0.925000	0.709795	-0.897254	-1.607050	0.108229	1.337631	-1.445860
0.930000	0.761142	-0.937936	-1.699078	0.102072	1.420408	-1.522480
0.935000	0.796743	-0.949415	-1.746158	0.088146	1.468144	-1.556289
0.940000	0.816286	-0.932067	-1.748353	0.066846	1.480695	-1.547540
0.945000	0.816725	-0.891026	-1.707751	0.042898	1.457506	-1.500404
0.950000	0.792030	-0.833739	-1.625769	0.024081	1.395916	-1.419997
0.955000	0.737276	-0.767192	-1.504469	0.017272	1.294272	-1.311543
0.960000	0.652073	-0.694553	-1.346626	0.024526	1.153949	-1.178475
0.965000	0.542571	-0.616465	-1.159037	0.042663	0.982423	-1.025086
0.970000	0.420217	-0.534054	-0.954271	0.065724	0.793560	-0.859284
0.975000	0.295501	-0.448006	-0.743507	0.088049	0.599872	-0.687920
0.980000	0.175070	-0.356604	-0.531674	0.104809	0.408039	-0.512848
0.985000	0.063480	-0.259790	-0.323270	0.113340	0.223290	-0.336630
0.990000	-0.036396	-0.162223	-0.125828	0.114673	0.051633	-0.166306
0.995000	-0.123061	-0.071026	0.052035	0.112056	-0.101092	-0.010964
1.000000	-0.196813	0.006419	0.203232	0.109924	-0.230966	0.121042
1.005000	-0.258107	0.065215	0.323323	0.111366	-0.335689	0.224322
1.010000	-0.307758	0.105552	0.413310	0.116743	-0.416308	0.299565
1.015000	-0.348439	0.131968	0.480407	0.124979	-0.478534	0.353555
1.020000	-0.383007	0.149420	0.532428	0.134861	-0.528526	0.393665
1.025000	-0.413051	0.161401	0.574452	0.145290	-0.570135	0.424844
1.030000	-0.439409	0.170585	0.609994	0.155206	-0.605873	0.450667
1.035000	-0.463070	0.178471	0.641541	0.164313	-0.637747	0.473434
1.040000	-0.485011	0.185602	0.670613	0.172864	-0.667199	0.494336
1.045000	-0.506881	0.193356	0.700236	0.181014	-0.696929	0.515915
1.050000	-0.529904	0.202658	0.732562	0.188936	-0.728885	0.539949
1.055000	-0.554536	0.213436	0.767971	0.196934	-0.763550	0.566615
1.060000	-0.580695	0.226394	0.807089	0.204556	-0.801237	0.596681
1.065000	-0.607523	0.241470	0.848993	0.211341	-0.840919	0.629579
1.070000	-0.633569	0.256644	0.890213	0.217617	-0.879755	0.662138
1.075000	-0.657309	0.270577	0.927886	0.223280	-0.915212	0.691932
1.080000	-0.677082	0.282715	0.959797	0.227688	-0.945052	0.717364
1.085000	-0.692192	0.292133	0.984325	0.230974	-0.967937	0.736963
1.090000	-0.703490	0.297719	1.001210	0.234272	-0.984208	0.749937
1.095000	-0.712718	0.299360	1.012077	0.238652	-0.995811	0.757158
1.100000	-0.721174	0.297706	1.018880	0.244489	-1.004621	0.760131
1.105000	-0.728683	0.293624	1.022307	0.251182	-1.010934	0.759752
1.110000	-0.733873	0.288076	1.021949	0.257381	-1.013723	0.756342
1.115000	-0.735498	0.281046	1.016545	0.262378	-1.011542	0.749164
1.120000	-0.733566	0.271682	1.005248	0.266669	-1.003904	0.737236
1.125000	-0.728715	0.260363	0.989078	0.270403	-0.991768	0.721365
1.130000	-0.721462	0.248361	0.969823	0.273145	-0.976463	0.703318
1.135000	-0.712137	0.235893	0.948030	0.274960	-0.958498	0.683538
1.140000	-0.700361	0.223766	0.924127	0.275162	-0.937898	0.662736
1.145000	-0.685569	0.214126	0.899695	0.272188	-0.915252	0.643064
1.150000	-0.667155	0.206823	0.873978	0.265773	-0.889774	0.624001
1.155000	-0.644958	0.198993	0.843951	0.257478	-0.859622	0.602144
1.160000	-0.619829	0.188853	0.808683	0.248824	-0.824751	0.575927
1.165000	-0.592798	0.176791	0.769589	0.240181	-0.786574	0.546393
1.170000	-0.564425	0.164286	0.728712	0.231020	-0.746593	0.515572
1.175000	-0.533723	0.152061	0.685784	0.220352	-0.704082	0.483730
1.180000	-0.493179	0.135409	0.628589	0.206559	-0.647653	0.441094
1.185000	-0.433794	0.108054	0.541848	0.188066	-0.563287	0.375221
1.190000	-0.354733	0.069903	0.424636	0.164447	-0.449969	0.285522
1.195000	-0.260380	0.025530	0.285910	0.135591	-0.315400	0.179809
1.200000	-0.155754	-0.023175	0.132579	0.103305	-0.166469	0.063165
1.205000	-0.045453	-0.079160	-0.033707	0.071946	-0.006782	-0.065164
1.210000	0.066495	-0.145551	-0.212046	0.045643	0.160816	-0.206459
1.215000	0.176804	-0.224385	-0.401189	0.027471	0.333704	-0.361175
1.220000	0.283270	-0.316821	-0.600091	0.019370	0.510009	-0.529379
1.225000	0.385081	-0.419943	-0.805023	0.020127	0.687107	-0.707234
1.230000	0.481903	-0.527136	-1.009039	0.026115	0.860795	-0.886910
1.235000	0.573637	-0.632086	-1.205723	0.033746	1.027314	-1.061059
1.240000	0.659298	-0.728877	-1.388175	0.040171	1.182109	-1.222280
1.245000	0.736150	-0.811227	-1.547377	0.043346	1.318395	-1.361740
1.250000	0.800632	-0.873586	-1.674218	0.042120	1.428855	-1.470975
1.255000	0.850007	-0.910747	-1.760754	0.035069	1.507323	-1.542391
1.260000	0.883583	-0.918548	-1.802131	0.020187	1.550597	-1.570784
1.265000	0.900653	-0.897621	-1.798273	-0.001751	1.558225	-1.556474
1.270000	0.897611	-0.854354	-1.751965	-0.024975	1.529733	-1.504758
1.275000	0.868598	-0.796013	-1.664611	-0.041907	1.462548	-1.420641
1.280000	0.809445	-0.728326	-1.537771	-0.046834	1.355165	-1.308331
1.285000	0.720773	-0.654674	-1.375447	-0.038163	1.210253	-1.172090
1.290000	0.609391	-0.576108	-1.185499	-0.019216	1.036280	-1.017064
1.295000	0.486450	-0.493022	-0.979472	0.003794	0.846350	-0.850144
1.300000	0.361859	-0.406020	-0.767878	0.025496	0.652254	-0.677750
1.305000	0.242125	-0.314133	-0.556258	0.041574	0.460946	-0.502521
1.310000	0.131571	-0.217342	-0.348913	0.049520	0.277408	-0.326927
1.315000	0.032853	-0.120205	-0.153058	0.050432	0.107336	-0.157768
1.320000	-0.052488	-0.030783	0.021705	0.048077	-0.042836	-0.005241
1.325000	-0.124691	0.043605	0.168296	0.046815	-0.169156	0.122341
1.330000	-0.184423	0.099715	0.284138	0.048906	-0.270524	0.221617
1.335000	-0.232720	0.138122	0.370842	0.054616	-0.348467	0.293850
1.340000	-0.272345	0.162786	0.435131	0.063254	-0.408462	0.345207
1.345000	-0.306366	0.179264	0.485630	0.073383	-0.457259	0.383876
1.350000	-0.336343	0.191131	0.527473	0.083838	-0.498724	0.414886
1.355000	-0.362887	0.200147	0.563033	0.093958	-0.534580	0.440622
1.360000	-0.386786	0.207984	0.594770	0.103232	-0.566701	0.463470
1.365000	-0.409050	0.215805	0.624856	0.111570	-0.596926	0.485356
1.370000	-0.431147	0.224095	0.655242	0.119541	-0.627227	0.507685
1.375000	-0.454124	0.233345	0.687468	0.127467	-0.659098	0.531631
1.380000	-0.478737	0.244534	0.723271	0.135217	-0.693979	0.558762
1.385000	-0.505078	0.258125	0.763203	0.142578	-0.732242	0.589664
1.390000	-0.532095	0.273056	0.805151	0.149556	-0.772059	0.622503
1.395000	-0.558335	0.287730	0.846066	0.156234	-0.810831	0.654597
1.400000	-0.582054	0.300874	0.882928	0.162339	-0.845808	0.683468
1.405000	-0.601494	0.311728	0.913222	0.167297	-0.874522	0.707225
1.410000	-0.616323	0.320250	0.936573	0.170938	-0.896565	0.725627
1.415000	-0.627677	0.325691	0.953368	0.174352	-0.912817	0.738465
1.420000	-0.637067	0.326939	0.964005	0.179052	-0.924379	0.745327
1.425000	-0.645608	0.324766	0.970374	0.185238	-0.932987	0.747749
1.430000	-0.653265	0.321041	0.974306	0.191810	-0.939678	0.747868
1.435000	-0.658474	0.315876	0.974351	0.197799	-0.942712	0.744913
1.440000	-0.659790	0.308326	0.968116	0.202918	-0.939872	0.736954
1.445000	-0.657484	0.298461	0.955945	0.207282	-0.931514	0.724232
1.450000	-0.652411	0.287078	0.939489	0.210925	-0.919083	0.708159
1.455000	-0.645129	0.274692	0.919822	0.213872	-0.903524	0.689653
1.460000	-0.635998	0.262075	0.898073	0.215885	-0.885696	0.669812
1.465000	-0.624420	0.250558	0.874979	0.215849	-0.865678	0.649829
1.470000	-0.609703	0.241183	0.850886	0.212765	-0.843271	0.630506
1.475000	-0.591271	0.233523	0.824794	0.206546	-0.817565	0.611019
1.480000	-0.569126	0.225597	0.794724	0.198336	-0.787419	0.589082
1.485000	-0.543983	0.215307	0.759290	0.189762	-0.752445	0.562683
1.490000	-0.516661	0.202459	0.719121	0.181405	-0.713479	0.532074
1.495000	-0.487876	0.189460	0.677336	0.172290	-0.672735	0.500445
1.500000	-0.456280	0.177102	0.633382	0.161183	-0.629116	0.467933
1.505000	-0.413404	0.159611	0.573015	0.146528	-0.569509	0.422981
1.510000	-0.351054	0.131253	0.482306	0.126902	-0.481140	0.354238
1.515000	-0.269080	0.092845	0.361925	0.101749	-0.364311	0.262562
1.520000	-0.171797	0.047731	0.219528	0.071629	-0.225931	0.154302
1.525000	-0.064469	-0.003110	0.061359	0.039017	-0.072647	0.033631
1.530000	0.047844	-0.061890	-0.109734	0.008110	0.090977	-0.099087
1.535000	0.160832	-0.131732	-0.292563	-0.016801	0.261767	-0.244966
1.540000	0.271175	-0.214895	-0.486069	-0.032493	0.437195	-0.404702
1.545000	0.376819	-0.310767	-0.687586	-0.038135	0.614534	-0.576399
1.550000	0.477371	-0.415249	-0.892621	-0.035866	0.790965	-0.755099
1.555000	0.572922	-0.522622	-1.095544	-0.029041	0.963289	-0.934248
1.560000	0.663380	-0.626613	-1.289993	-0.021228	1.127780	-1.106552
1.565000	0.747297	-0.720967	-1.468264	-0.015202	1.279154	-1.263952
1.570000	0.821601	-0.800124	-1.621725	-0.012400	1.410654	-1.398254
1.575000	0.882709	-0.858248	-1.740957	-0.014123	1.514774	-1.500651
1.580000	0.928397	-0.889519	-1.817916	-0.022446	1.585584	-1.563138
1.585000	0.958459	-0.891082	-1.849540	-0.038900	1.621198	-1.582298
1.590000	0.971807	-0.865082	-1.836889	-0.061618	1.621601	-1.559983
1.595000	0.963941	-0.817746	-1.781687	-0.084406	1.585188	-1.500782
1.600000	0.928857	-0.756620	-1.685477	-0.099441	1.509385	-1.409944
1.605000	0.863200	-0.687896	-1.551096	-0.101211	1.393894	-1.292682
1.610000	0.768715	-0.613711	-1.382426	-0.089492	1.241962	-1.152470
1.615000	0.653490	-0.534064	-1.187554	-0.068951	1.062927	-0.993976
1.620000	0.529128	-0.450275	-0.979403	-0.045526	0.870950	-0.825425
1.625000	0.404812	-0.362740	-0.767553	-0.024290	0.676865	-0.652575
1.630000	0.286417	-0.269659	-0.556075	-0.009675	0.486413	-0.476738
1.635000	0.177949	-0.172386	-0.350335	-0.003211	0.305004	-0.301793
1.640000	0.081999	-0.076629	-0.158628	-0.003100	0.138926	-0.135826
1.645000	-0.000530	0.010248	0.010779	-0.005611	-0.006529	0.012140
1.650000	-0.070314	0.081490	0.151804	-0.006453	-0.128240	0.134693
1.655000	-0.127763	0.133600	0.261363	-0.003370	-0.224662	0.228032
1.660000	-0.174287	0.168460	0.342747	0.003364	-0.298510	0.295146
1.665000	-0.212902	0.191395	0.404297	0.012417	-0.356339	0.343922
1.670000	-0.246253	0.206896	0.453149	0.022722	-0.403800	0.381077
1.675000	-0.275641	0.217616	0.493257	0.033500	-0.443923	0.410423
1.680000	-0.301900	0.226065	0.527964	0.043783	-0.479122	0.435339
1.685000	-0.325747	0.233530	0.559277	0.053242	-0.510969	0.457727
1.690000	-0.348158	0.240955	0.589113	0.061894	-0.541134	0.479240
1.695000	-0.370692	0.249580	0.620272	0.069924	-0.572133	0.502209
1.700000	-0.394336	0.259526	0.653862	0.077832	-0.605177	0.527345
1.705000	-0.419522	0.270820	0.690342	0.085853	-0.640780	0.554927
1.710000	-0.446090	0.284425	0.730515	0.093337	-0.679313	0.585976
1.715000	-0.473051	0.299749	0.772801	0.100056	-0.719293	0.619237
1.720000	-0.498943	0.314348	0.813291	0.106576	-0.757618	0.651042
1.725000	-0.521989	0.326867	0.848856	0.112654	-0.791458	0.678804
1.730000	-0.540705	0.337072	0.877777	0.117567	-0.818960	0.701393
1.735000	-0.554974	0.344292	0.899266	0.121637	-0.839605	0.717968
1.740000	-0.565963	0.347817	0.913780	0.125947	-0.854330	0.728383
1.745000	-0.575288	0.348015	0.923304	0.131216	-0.865212	0.733996
1.750000	-0.583863	0.345624	0.929487	0.137547	-0.873733	0.736185
1.755000	-0.591174	0.341407	0.932581	0.144203	-0.879740	0.735537
1.760000	-0.595684	0.335832	0.931516	0.150026	-0.881729	0.731703
1.765000	-0.596348	0.328354	0.924702	0.154726	-0.878178	0.723452
1.770000	-0.593532	0.318242	0.911774	0.158938	-0.869089	0.710150
1.775000	-0.588090	0.306374	0.894464	0.162649	-0.855953	0.693303
1.780000	-0.580748	0.294202	0.874950	0.165437	-0.840447	0.675010
1.785000	-0.571575	0.282092	0.853667	0.167133	-0.822863	0.655730
1.790000	-0.559731	0.270788	0.830519	0.166821	-0.802660	0.635839
1.795000	-0.544580	0.261907	0.806487	0.163201	-0.780039	0.616837
1.800000	-0.525564	0.254671	0.780235	0.156400	-0.753903	0.597503
1.805000	-0.502814	0.246145	0.748959	0.148187	-0.722711	0.574523
1.810000	-0.477220	0.235033	0.712253	0.139826	-0.686742	0.546916
1.815000	-0.449745	0.222260	0.672005	0.131338	-0.647643	0.516304
1.820000	-0.420839	0.209482	0.630321	0.122027	-0.606887	0.484860
1.825000	-0.388542	0.197234	0.585775	0.110452	-0.562522	0.452070
1.830000	-0.344368	0.181439	0.525807	0.094067	-0.502395	0.408328
1.835000	-0.280374	0.155117	0.435491	0.072317	-0.413305	0.340988
1.840000	-0.196201	0.116726	0.312927	0.045885	-0.293946	0.248060
1.845000	-0.096272	0.069522	0.165794	0.015444	-0.151304	0.135860
1.850000	0.013701	0.014618	0.000917	-0.016350	0.007381	0.008969
1.855000	0.128137	-0.049653	-0.177790	-0.045313	0.176627	-0.131314
1.860000	0.242187	-0.124454	-0.366640	-0.067973	0.351506	-0.283533
1.865000	0.352458	-0.211252	-0.563709	-0.081525	0.528949	-0.447424
1.870000	0.457449	-0.309976	-0.767425	-0.085144	0.707181	-0.622037
1.875000	0.557002	-0.416212	-0.973214	-0.081285	0.883470	-0.802185
1.880000	0.651179	-0.523310	-1.174490	-0.073825	1.054050	-0.980225
1.885000	0.739971	-0.625505	-1.365476	-0.066087	1.215580	-1.149493
1.890000	0.821932	-0.717308	-1.539240	-0.060405	1.363223	-1.302818
1.895000	0.893689	-0.792422	-1.686111	-0.058467	1.489448	-1.430981
1.900000	0.951584	-0.844985	-1.796569	-0.061545	1.586646	-1.525101
1.905000	0.993931	-0.870276	-1.864208	-0.071392	1.650146	-1.578754
1.910000	1.020559	-0.865872	-1.886431	-0.089309	1.678351	-1.589042
1.915000	1.029766	-0.834781	-1.864547	-0.112575	1.671032	-1.558457
1.920000	1.016654	-0.784134	-1.800788	-0.134245	1.626651	-1.492405
1.925000	0.975436	-0.721113	-1.696549	-0.146833	1.542670	-1.395837
1.930000	0.903531	-0.650655	-1.554185	-0.145998	1.418962	-1.272964
1.935000	0.803859	-0.575093	-1.378952	-0.132078	1.260246	-1.128168
1.940000	0.685604	-0.495030	-1.180634	-0.110028	1.077473	-0.967445
1.945000	0.560233	-0.410725	-0.970958	-0.086319	0.884034	-0.797715
1.950000	0.436289	-0.321756	-0.758045	-0.066126	0.689549	-0.623423
1.955000	0.319483	-0.227558	-0.547041	-0.053073	0.500288	-0.447215
1.960000	0.213363	-0.130259	-0.343623	-0.047980	0.321576	-0.273596
1.965000	0.119951	-0.035673	-0.155624	-0.048658	0.159103	-0.110445
1.970000	0.039876	0.048059	0.008183	-0.050770	0.018298	0.032471
1.975000	-0.027517	0.114836	0.142352	-0.050414	-0.098074	0.148488
1.980000	-0.082797	0.163029	0.245826	-0.046322	-0.189731	0.236053
1.985000	-0.127699	0.194773	0.322471	-0.038725	-0.259906	0.298631
1.990000	-0.165264	0.214934	0.380198	-0.028677	-0.314922	0.343599
1.995000	-0.198024	0.228830	0.426854	-0.017786	-0.360773	0.378559
2.000000	-0.226915	0.239145	0.466060	-0.007061	-0.400089	0.407150
2.005000	-0.252532	0.247145	0.499677	0.003110	-0.434288	0.431178
2.010000	-0.275824	0.254165	0.529989	0.012504	-0.465236	0.452732
2.015000	-0.298156	0.261884	0.560040	0.020942	-0.495480	0.474538
2.020000	-0.320905	0.270868	0.591773	0.028889	-0.526935	0.498046
2.025000	-0.344969	0.281146	0.626115	0.036848	-0.560655	0.523807
2.030000	-0.370836	0.293368	0.664204	0.044726	-0.597580	0.552854
2.035000	-0.397915	0.307519	0.705434	0.052190	-0.637019	0.584828
2.040000	-0.424868	0.322360	0.747228	0.059183	-0.676710	0.617527
2.045000	-0.450353	0.336516	0.786870	0.065724	-0.714311	0.648587
2.050000	-0.472568	0.348865	0.821433	0.071420	-0.747092	0.675672
2.055000	-0.490180	0.358461	0.848641	0.076048	-0.772968	0.696920
2.060000	-0.503577	0.364923	0.868500	0.080052	-0.792168	0.712116
2.065000	-0.514254	0.368143	0.882397	0.084357	-0.806356	0.721999
2.070000	-0.523597	0.367877	0.891474	0.089905	-0.816991	0.727086
2.075000	-0.532237	0.364779	0.897016	0.096682	-0.825179	0.728497
2.080000	-0.539428	0.360403	0.899831	0.103360	-0.830956	0.727596
2.085000	-0.543474	0.354546	0.898020	0.109078	-0.832247	0.723169
2.090000	-0.543580	0.346150	0.889730	0.113986	-0.827521	0.713535
2.095000	-0.540451	0.335476	0.875927	0.118342	-0.817746	0.699404
2.100000	-0.534795	0.323439	0.858234	0.122027	-0.804266	0.682239
2.105000	-0.527062	0.310601	0.837663	0.124974	-0.787924	0.662950
2.110000	-0.517355	0.298037	0.815393	0.126623	-0.769462	0.642839
2.115000	-0.504964	0.287525	0.792489	0.125539	-0.749085	0.623546
2.120000	-0.489087	0.279335	0.768422	0.121100	-0.726023	0.604922
2.125000	-0.469162	0.271711	0.740873	0.113998	-0.698613	0.584615
2.130000	-0.445722	0.262874	0.708596	0.105567	-0.666446	0.560879
2.135000	-0.419665	0.251663	0.671328	0.096996	-0.629885	0.532889
2.140000	-0.391872	0.238627	0.630499	0.088476	-0.590266	0.501790
2.145000	-0.362808	0.226061	0.588868	0.078951	-0.549450	0.470499
2.150000	-0.328637	0.212248	0.540885	0.067197	-0.502019	0.434822
2.155000	-0.279203	0.189690	0.468893	0.051680	-0.431913	0.380233
2.160000	-0.209675	0.155712	0.365386	0.031156	-0.332011	0.300856
2.165000	-0.122679	0.113793	0.236471	0.005130	-0.207355	0.202225
2.170000	-0.022903	0.066880	0.089783	-0.025390	-0.065059	0.090450
2.175000	0.084983	0.014154	-0.070830	-0.057237	0.089959	-0.032722
2.180000	0.196495	-0.047082	-0.243576	-0.086264	0.254075	-0.167812
2.185000	0.307785	-0.119923	-0.427707	-0.108462	0.424636	-0.316174
2.190000	0.415888	-0.206556	-0.622444	-0.120858	0.599481	-0.478623
2.195000	0.519271	-0.305308	-0.824579	-0.123532	0.775872	-0.652340
2.200000	0.617718	-0.411113	-1.028832	-0.119283	0.950636	-0.831352
2.205000	0.711269	-0.517968	-1.229237	-0.111603	1.120352	-1.008749
2.210000	0.799448	-0.619361	-1.418809	-0.103973	1.280711	-1.176738
2.215000	0.880145	-0.709214	-1.589360	-0.098687	1.425769	-1.327082
2.220000	0.950103	-0.782118	-1.732222	-0.096986	1.548640	-1.451654
2.225000	1.006000	-0.832105	-1.838105	-0.100398	1.642044	-1.541646
2.230000	1.046223	-0.853549	-1.899772	-0.111240	1.700870	-1.589630
2.235000	1.070579	-0.845032	-1.915611	-0.130220	1.724077	-1.593857
2.240000	1.077028	-0.811126	-1.888154	-0.153519	1.711948	-1.558429
2.245000	1.060294	-0.758687	-1.818982	-0.174133	1.662350	-1.488217
2.250000	1.014896	-0.694703	-1.709599	-0.184864	1.572987	-1.388123
2.255000	0.938942	-0.624228	-1.563171	-0.181700	1.444595	-1.262895
2.260000	0.836134	-0.548473	-1.384607	-0.166081	1.282145	-1.116064
2.265000	0.716216	-0.467475	-1.183690	-0.143611	1.096911	-0.953300
2.270000	0.590662	-0.382698	-0.973360	-0.120068	0.902988	-0.782920
2.275000	0.467559	-0.293801	-0.761360	-0.100319	0.709516	-0.609197
2.280000	0.351967	-0.199029	-0.550996	-0.088299	0.521326	-0.433027
2.285000	0.247218	-0.101157	-0.348375	-0.084328	0.343865	-0.259537
2.290000	0.155551	-0.007478	-0.163029	-0.085490	0.183932	-0.098443
2.295000	0.077243	0.074410	-0.002833	-0.087557	0.046232	0.041325
2.300000	0.011444	0.139230	0.127785	-0.086992	-0.067169	0.154161
2.305000	-0.042327	0.185083	0.227410	-0.082420	-0.155733	0.238153
2.310000	-0.086216	0.215128	0.301344	-0.074428	-0.223758	0.298185
2.315000	-0.123406	0.234951	0.358357	-0.064400	-0.278146	0.342547
2.320000	-0.155945	0.248513	0.404458	-0.053445	-0.323549	0.376993
2.325000	-0.184560	0.258174	0.442734	-0.042501	-0.362168	0.404670
2.330000	-0.210057	0.266155	0.476211	-0.032388	-0.396217	0.428605
2.335000	-0.233334	0.273321	0.506655	-0.023086	-0.427233	0.450319
2.340000	-0.255709	0.280481	0.536191	-0.014302	-0.457204	0.471506
2.345000	-0.278698	0.288984	0.567682	-0.005939	-0.488657	0.494596
2.350000	-0.303153	0.299390	0.602544	0.002172	-0.522904	0.520732
2.355000	-0.329377	0.311573	0.640950	0.010279	-0.560218	0.549939
2.360000	-0.356852	0.325787	0.682639	0.017936	-0.600151	0.582215
2.365000	-0.384233	0.341106	0.725339	0.024899	-0.640612	0.615712
2.370000	-0.409763	0.355326	0.765090	0.031429	-0.678301	0.646872
2.375000	-0.431559	0.367322	0.798882	0.037087	-0.710395	0.673308
2.380000	-0.448619	0.376697	0.825316	0.041524	-0.735506	0.693982
2.385000	-0.461574	0.382729	0.844303	0.045521	-0.753948	0.708427
2.390000	-0.471974	0.384854	0.856828	0.050299	-0.767184	0.716886
2.395000	-0.481340	0.383900	0.865240	0.056257	-0.777448	0.721191
2.400000	-0.490118	0.381036	0.871154	0.062979	-0.785930	0.722952
2.405000	-0.497192	0.376463	0.873655	0.069703	-0.791458	0.721756
2.410000	-0.500906	0.370025	0.870931	0.075564	-0.792030	0.716466
2.415000	-0.500861	0.361543	0.862404	0.080435	-0.787081	0.706646
2.420000	-0.497671	0.350642	0.848313	0.084887	-0.777104	0.692217
2.425000	-0.491970	0.338338	0.830309	0.088699	-0.763418	0.674718
2.430000	-0.484327	0.325989	0.810316	0.091416	-0.747462	0.656046
2.435000	-0.474474	0.313961	0.788435	0.092672	-0.729140	0.636468
2.440000	-0.461532	0.303251	0.764783	0.091383	-0.708013	0.616630
2.445000	-0.445024	0.294784	0.739808	0.086741	-0.684063	0.597322
2.450000	-0.424672	0.286946	0.711617	0.079516	-0.656036	0.576520
2.455000	-0.400883	0.277077	0.677960	0.071480	-0.622870	0.551390
2.460000	-0.374650	0.264838	0.639487	0.063400	-0.585512	0.522112
2.465000	-0.346982	0.251974	0.598956	0.054853	-0.546137	0.491285
2.470000	-0.317926	0.239626	0.557552	0.045206	-0.505457	0.460251
2.475000	-0.282749	0.225711	0.508460	0.032931	-0.456805	0.423873
2.480000	-0.231514	0.204025	0.435539	0.015871	-0.385123	0.369252
2.485000	-0.159601	0.170618	0.330219	-0.006361	-0.282797	0.289158
2.490000	-0.069501	0.127536	0.197037	-0.033506	-0.153886	0.187392
2.495000	0.033589	0.078313	0.044724	-0.064607	-0.006429	0.071036
2.500000	0.144328	0.022322	-0.122006	-0.096216	0.153768	-0.057552
2.505000	0.257849	-0.043371	-0.301221	-0.123829	0.322779	-0.198950
2.510000	0.369956	-0.120680	-0.490636	-0.143919	0.496863	-0.352943
2.515000	0.477715	-0.210563	-0.688278	-0.154240	0.673186	-0.518946
2.520000	0.580231	-0.311574	-0.891805	-0.155109	0.849880	-0.694771
2.525000	0.677567	-0.418455	-1.096022	-0.149599	1.023982	-0.874383
2.530000	0.769786	-0.524584	-1.294369	-0.141567	1.191740	-1.050172
2.535000	0.856426	-0.624315	-1.480741	-0.134009	1.349363	-1.215354
2.540000	0.935115	-0.711835	-1.646950	-0.128910	1.490755	-1.361845
2.545000	1.002175	-0.780475	-1.782650	-0.127999	1.607819	-1.479820
2.550000	1.054468	-0.824294	-1.878762	-0.132891	1.693500	-1.560609
2.555000	1.091110	-0.839512	-1.930623	-0.145260	1.744598	-1.599338
2.560000	1.111913	-0.825525	-1.937438	-0.165346	1.760543	-1.595196
2.565000	1.114205	-0.786864	-1.901068	-0.188990	1.740868	-1.551878
2.570000	1.092199	-0.731310	-1.823509	-0.208360	1.683384	-1.475024
2.575000	1.040600	-0.665939	-1.706539	-0.216310	1.586060	-1.369750
2.580000	0.958342	-0.594196	-1.552539	-0.210240	1.449657	-1.239418
2.585000	0.850744	-0.517279	-1.368023	-0.192526	1.281005	-1.088479
2.590000	0.728667	-0.435985	-1.164652	-0.168980	1.093107	-0.924128
2.595000	0.602870	-0.350520	-0.953390	-0.145695	0.898506	-0.752812
2.600000	0.480594	-0.259742	-0.740336	-0.127509	0.704904	-0.577395
2.605000	0.366733	-0.163926	-0.530659	-0.117090	0.518109	-0.401019
2.610000	0.264306	-0.066869	-0.331175	-0.113990	0.343801	-0.229811
2.615000	0.175070	0.024704	-0.150366	-0.115339	0.187890	-0.072551
2.620000	0.099149	0.102995	0.003845	-0.116708	0.055024	0.061684
2.625000	0.035848	0.163120	0.127272	-0.114875	-0.052783	0.167658
2.630000	-0.015751	0.205250	0.221000	-0.109407	-0.136688	0.246096
2.635000	-0.058053	0.233026	0.291079	-0.101021	-0.201572	0.302592
2.640000	-0.094031	0.251100	0.345131	-0.090684	-0.253550	0.344234
2.645000	-0.125682	0.263701	0.389384	-0.079685	-0.297374	0.377059
2.650000	-0.153733	0.273028	0.426761	-0.068875	-0.335148	0.404023
2.655000	-0.178831	0.280341	0.459172	-0.058607	-0.368351	0.426958
2.660000	-0.201949	0.287193	0.489142	-0.049215	-0.399002	0.448217
2.665000	-0.224569	0.294879	0.519448	-0.040593	-0.429559	0.470152
2.670000	-0.247935	0.303625	0.551559	-0.032153	-0.461588	0.493740
2.675000	-0.272904	0.313970	0.586874	-0.023710	-0.496393	0.520102
2.680000	-0.299605	0.326911	0.626516	-0.015765	-0.534696	0.550461
2.685000	-0.327111	0.341866	0.668977	-0.008519	-0.575091	0.583610
2.690000	-0.353978	0.356720	0.710698	-0.001583	-0.614691	0.616274
2.695000	-0.378916	0.370456	0.749372	0.004885	-0.651417	0.646533
2.700000	-0.400237	0.382467	0.782704	0.010260	-0.682971	0.672711
2.705000	-0.416958	0.391528	0.808486	0.014682	-0.707510	0.692828
2.710000	-0.429843	0.397132	0.826975	0.018886	-0.725624	0.706738
2.715000	-0.440395	0.398986	0.839381	0.023908	-0.738879	0.714971
2.720000	-0.449726	0.397083	0.846809	0.030393	-0.748554	0.718161
2.725000	-0.458038	0.392878	0.850916	0.037620	-0.755725	0.718105
2.730000	-0.464380	0.387792	0.852172	0.044218	-0.760112	0.715893
2.735000	-0.467295	0.381098	0.848393	0.049766	-0.759613	0.709847
2.740000	-0.466513	0.371767	0.838280	0.054701	-0.753322	0.698621
2.745000	-0.462803	0.360663	0.823466	0.058971	-0.742627	0.683657
2.750000	-0.456712	0.348977	0.805689	0.062201	-0.728847	0.666646
2.755000	-0.448585	0.336560	0.785144	0.064678	-0.712293	0.647616
2.760000	-0.438215	0.324308	0.762523	0.065764	-0.693247	0.627482
2.765000	-0.424956	0.314238	0.739194	0.063923	-0.672122	0.608199
2.770000	-0.408127	0.306081	0.714208	0.058916	-0.647980	0.589064
2.775000	-0.387459	0.297684	0.685143	0.051831	-0.619267	0.567436
2.780000	-0.363729	0.287621	0.651350	0.043941	-0.586056	0.542115
2.785000	-0.337678	0.275359	0.613037	0.035980	-0.548895	0.512915
2.790000	-0.309853	0.262083	0.571936	0.027580	-0.509101	0.481521
2.795000	-0.280160	0.249933	0.530093	0.017452	-0.467800	0.450348
2.800000	-0.243454	0.237440	0.480894	0.003472	-0.418202	0.414730
2.805000	-0.189854	0.216843	0.406697	-0.015582	-0.344419	0.360001
2.810000	-0.115219	0.183682	0.298900	-0.039527	-0.239092	0.278619
2.815000	-0.022197	0.140402	0.162598	-0.068246	-0.106692	0.174937
2.820000	0.083917	0.089147	0.005230	-0.099918	0.045429	0.054489
2.825000	0.197140	0.029177	-0.167963	-0.130664	0.210792	-0.080128
2.830000	0.311931	-0.040710	-0.352641	-0.156589	0.383690	-0.227101
2.835000	0.424197	-0.122521	-0.546718	-0.174173	0.560558	-0.386385
2.840000	0.531401	-0.217176	-0.748578	-0.181418	0.738996	-0.557578
2.845000	0.632858	-0.321258	-0.954115	-0.179902	0.916239	-0.736337
2.850000	0.728838	-0.428974	-1.157812	-0.173127	1.089257	-0.916131
2.855000	0.819649	-0.534804	-1.354454	-0.164455	1.255219	-1.090763
2.860000	0.904469	-0.632709	-1.537179	-0.156901	1.409685	-1.252785
2.865000	0.980611	-0.716447	-1.697058	-0.152515	1.545952	-1.393437
2.870000	1.044639	-0.780621	-1.825260	-0.152431	1.656937	-1.504506
2.875000	1.093809	-0.819518	-1.913327	-0.158362	1.736170	-1.577808
2.880000	1.127328	-0.828647	-1.955975	-0.172444	1.780145	-1.607702
2.885000	1.144647	-0.808948	-1.953595	-0.193816	1.788770	-1.594954
2.890000	1.142242	-0.766513	-1.908755	-0.216927	1.761493	-1.544567
2.895000	1.114081	-0.708392	-1.822473	-0.234225	1.695420	-1.461195
2.900000	1.055783	-0.641149	-1.696931	-0.239389	1.589279	-1.349890
2.905000	0.967717	-0.568513	-1.536230	-0.230480	1.445653	-1.215173
2.910000	0.856246	-0.490828	-1.347075	-0.210974	1.272087	-1.061113
2.915000	0.732487	-0.408089	-1.140576	-0.187292	1.081413	-0.894122
2.920000	0.606820	-0.321458	-0.928277	-0.164754	0.886288	-0.721534
2.925000	0.486029	-0.230108	-0.716137	-0.147756	0.694071	-0.546314
2.930000	0.374400	-0.133610	-0.508010	-0.139020	0.509459	-0.370440
2.935000	0.274632	-0.036604	-0.311236	-0.137425	0.338251	-0.200826
2.940000	0.188150	0.052883	-0.135267	-0.139161	0.186725	-0.047564
2.945000	0.114552	0.127908	0.013356	-0.139984	0.058425	0.081559
2.950000	0.053246	0.184583	0.131337	-0.137311	-0.045086	0.182396
2.955000	0.003468	0.223030	0.219562	-0.130769	-0.124762	0.255531
2.960000	-0.037497	0.247915	0.285412	-0.121485	-0.186431	0.307916
2.965000	-0.072722	0.264943	0.337665	-0.110979	-0.236937	0.347916
2.970000	-0.103689	0.277035	0.380724	-0.100081	-0.279676	0.379757
2.975000	-0.131062	0.285902	0.416964	-0.089397	-0.316403	0.405800
2.980000	-0.155731	0.293437	0.449169	-0.079505	-0.349239	0.428744
2.985000	-0.178570	0.300658	0.479228	-0.070487	-0.379780	0.450267
2.990000	-0.201106	0.308465	0.509571	-0.061984	-0.410309	0.472293
2.995000	-0.224860	0.317903	0.542764	-0.053718	-0.443188	0.496906
3.000000	-0.250598	0.329087	0.579685	-0.045316	-0.479364	0.524680
3.005000	-0.277893	0.342039	0.619932	-0.037035	-0.518359	0.555394
3.010000	-0.305573	0.356718	0.662290	-0.029528	-0.558796	0.588324
3.015000	-0.332319	0.371627	0.703945	-0.022694	-0.598287	0.620981
3.020000	-0.356521	0.384729	0.741250	-0.016286	-0.633798	0.650084
3.025000	-0.376557	0.395337	0.771894	-0.010842	-0.663058	0.673900
3.030000	-0.392117	0.403656	0.795773	-0.006662	-0.685829	0.692491
3.035000	-0.404235	0.408811	0.813047	-0.002642	-0.702798	0.705440
3.040000	-0.414421	0.409862	0.824283	0.002632	-0.715166	0.712534
3.045000	-0.423900	0.407709	0.831609	0.009348	-0.724868	0.715520
3.050000	-0.432442	0.403770	0.836213	0.016554	-0.732458	0.715904
3.055000	-0.438414	0.398356	0.836771	0.023128	-0.736228	0.713101
3.060000	-0.440589	0.391092	0.831681	0.028577	-0.734545	0.705968
3.065000	-0.439250	0.381563	0.820812	0.033306	-0.727497	0.694191
3.070000	-0.435027	0.369717	0.804744	0.037707	-0.715782	0.678075
3.075000	-0.428453	0.356560	0.785014	0.041508	-0.700595	0.659088
3.080000	-0.420098	0.343505	0.763603	0.044221	-0.683410	0.639189
3.085000	-0.409432	0.331590	0.741022	0.044942	-0.664214	0.619273
3.090000	-0.395601	0.321645	0.717246	0.042698	-0.642502	0.599804
3.095000	-0.378043	0.313551	0.691594	0.037234	-0.617555	0.580321
3.100000	-0.356716	0.305181	0.661897	0.029754	-0.588097	0.558343
3.105000	-0.332280	0.294288	0.626568	0.021935	-0.553591	0.531656
3.110000	-0.305735	0.281236	0.586972	0.014145	-0.515405	0.501260
3.115000	-0.277862	0.268307	0.546170	0.005517	-0.475755	0.470238
3.120000	-0.247430	0.255618	0.503048	-0.004728	-0.433289	0.438016
3.125000	-0.206545	0.237820	0.444365	-0.018057	-0.375803	0.393860
3.130000	-0.146875	0.209537	0.356412	-0.036178	-0.290573	0.326751
3.135000	-0.067826	0.171135	0.238961	-0.059646	-0.177124	0.236769
3.140000	0.026602	0.126323	0.099721	-0.088292	-0.042215	0.130506
3.145000	0.131342	0.076847	-0.054496	-0.120198	0.107293	0.012904
3.150000	0.241516	0.020273	-0.221243	-0.151144	0.267174	-0.116030
3.155000	0.352992	-0.047016	-0.400009	-0.176655	0.434745	-0.258090
3.160000	0.462374	-0.127236	-0.589609	-0.193492	0.607362	-0.413870
3.165000	0.567457	-0.220806	-0.788263	-0.200139	0.782725	-0.582586
3.170000	0.667840	-0.324762	-0.992602	-0.198077	0.958656	-0.760580
3.175000	0.763485	-0.432645	-1.196129	-0.191011	1.131383	-0.940373
3.180000	0.854082	-0.537546	-1.391628	-0.182752	1.296561	-1.113809
3.185000	0.938381	-0.633731	-1.572112	-0.175889	1.449433	-1.273544
3.190000	1.013511	-0.715563	-1.729074	-0.172020	1.583432	-1.411411
3.195000	1.075807	-0.776744	-1.852551	-0.172664	1.690687	-1.518023
3.200000	1.122673	-0.811535	-1.934208	-0.179636	1.764891	-1.585255
3.205000	1.153811	-0.817048	-1.970859	-0.194430	1.804029	-1.609598
3.210000	1.168593	-0.794453	-1.963046	-0.216009	1.808052	-1.592042
3.215000	1.163092	-0.749524	-1.912616	-0.238773	1.775760	-1.536987
3.220000	1.131303	-0.690115	-1.821418	-0.254720	1.704754	-1.450034
3.225000	1.069237	-0.622393	-1.691629	-0.257986	1.593986	-1.336001
3.230000	0.977696	-0.548761	-1.526457	-0.247646	1.445773	-1.198127
3.235000	0.863954	-0.470117	-1.334072	-0.227382	1.269030	-1.041649
3.240000	0.739561	-0.387355	-1.126916	-0.203346	1.077610	-0.874265
3.245000	0.614207	-0.300420	-0.914627	-0.181165	0.882673	-0.701508
3.250000	0.494139	-0.207985	-0.702124	-0.165211	0.690663	-0.525451
3.255000	0.383592	-0.111388	-0.494980	-0.157157	0.507243	-0.350086
3.260000	0.285171	-0.015524	-0.300694	-0.155681	0.338249	-0.182568
3.265000	0.200143	0.072421	-0.127722	-0.157365	0.189293	-0.031928
3.270000	0.128143	0.145001	0.016858	-0.157700	0.064250	0.093449
3.275000	0.068517	0.198615	0.130098	-0.154229	-0.035554	0.189782
3.280000	0.020009	0.234978	0.214969	-0.147217	-0.112560	0.259777
3.285000	-0.020185	0.258587	0.278772	-0.137641	-0.172603	0.310244
3.290000	-0.054897	0.274328	0.329226	-0.126689	-0.221773	0.348462
3.295000	-0.085606	0.285863	0.371469	-0.115618	-0.263893	0.379511
3.300000	-0.112958	0.294990	0.407948	-0.105096	-0.300745	0.405841
3.305000	-0.137560	0.302340	0.439900	-0.095136	-0.333397	0.428533
3.310000	-0.160463	0.309365	0.469828	-0.085968	-0.363899	0.449867
3.315000	-0.183336	0.317674	0.501010	-0.077560	-0.395107	0.472667
3.320000	-0.207205	0.327344	0.534549	-0.069363	-0.428252	0.497614
3.325000	-0.232672	0.338524	0.571195	-0.061114	-0.464113	0.525226
3.330000	-0.259742	0.352053	0.611795	-0.053296	-0.503182	0.556478
3.335000	-0.287378	0.366825	0.654203	-0.045868	-0.543622	0.589490
3.340000	-0.314137	0.380806	0.694943	-0.038492	-0.582593	0.621084
3.345000	-0.338377	0.393607	0.731985	-0.031887	-0.617973	0.649861
3.350000	-0.358365	0.404507	0.762872	-0.026640	-0.647346	0.673986
3.355000	-0.373693	0.412348	0.786041	-0.022318	-0.669572	0.691890
3.360000	-0.385528	0.416575	0.802104	-0.017925	-0.685679	0.703604
3.365000	-0.395585	0.417274	0.812859	-0.012523	-0.697695	0.710217
3.370000	-0.404893	0.414768	0.819661	-0.005701	-0.706996	0.712697
3.375000	-0.413120	0.410185	0.823305	0.001694	-0.713850	0.712156
3.380000	-0.418810	0.404503	0.823313	0.008260	-0.717140	0.708880
3.385000	-0.420760	0.396947	0.817707	0.013749	-0.715029	0.701280
3.390000	-0.419134	0.386650	0.805784	0.018755	-0.707206	0.688452
3.395000	-0.414723	0.374782	0.789505	0.023060	-0.695261	0.672201
3.400000	-0.408124	0.362494	0.770618	0.026344	-0.680546	0.654202
3.405000	-0.399561	0.349788	0.749349	0.028736	-0.663323	0.634587
3.410000	-0.388458	0.338050	0.726508	0.029103	-0.643725	0.614622
3.415000	-0.374221	0.328992	0.703213	0.026113	-0.622057	0.595943
3.420000	-0.356226	0.321358	0.677584	0.020131	-0.596870	0.576739
3.425000	-0.334499	0.312526	0.647024	0.012686	-0.566682	0.553996
3.430000	-0.309967	0.301631	0.611598	0.004813	-0.532066	0.527253
3.435000	-0.283548	0.288984	0.572532	-0.003138	-0.494258	0.497396
3.440000	-0.255642	0.275869	0.531511	-0.011678	-0.454463	0.466141
3.445000	-0.224563	0.262938	0.487501	-0.022156	-0.411110	0.433266
3.450000	-0.181756	0.245223	0.426979	-0.036643	-0.351453	0.388096
3.455000	-0.119216	0.216612	0.335828	-0.056231	-0.262720	0.318951
3.460000	-0.036915	0.177606	0.214521	-0.081228	-0.145166	0.226394
3.465000	0.060713	0.131840	0.071127	-0.111171	-0.006012	0.117183
3.470000	0.168365	0.079505	-0.088860	-0.143108	0.148509	-0.005401
3.475000	0.280790	0.018244	-0.262545	-0.172647	0.313695	-0.141047
3.480000	0.393378	-0.053588	-0.446966	-0.196178	0.485173	-0.288995
3.485000	0.502852	-0.138007	-0.640859	-0.210643	0.660322	-0.449679
3.490000	0.607526	-0.235329	-0.842855	-0.214888	0.837377	-0.622489
3.495000	0.706932	-0.340877	-1.047810	-0.211342	1.013100	-0.801758
3.500000	0.801055	-0.448210	-1.249266	-0.203715	1.183753	-0.980038
3.505000	0.890066	-0.551719	-1.441785	-0.195345	1.346294	-1.150950
3.510000	0.972480	-0.645314	-1.617795	-0.188889	1.495495	-1.306606
3.515000	1.045002	-0.723023	-1.768024	-0.185895	1.624101	-1.438206
3.520000	1.104063	-0.779570	-1.883633	-0.187346	1.724946	-1.537600
3.525000	1.147656	-0.809443	-1.957099	-0.195267	1.792530	-1.597263
3.530000	1.175506	-0.809061	-1.984568	-0.211567	1.824469	-1.612902
3.535000	1.186370	-0.781088	-1.967458	-0.233989	1.820862	-1.586873
3.540000	1.175754	-0.732833	-1.908587	-0.255721	1.780744	-1.525024
3.545000	1.137717	-0.671246	-1.808962	-0.269317	1.701265	-1.431948
3.550000	1.069105	-0.601662	-1.670766	-0.269878	1.581865	-1.311986
3.555000	0.972063	-0.526854	-1.498917	-0.257041	1.426620	-1.169579
3.560000	0.854998	-0.447209	-1.302208	-0.235437	1.245463	-1.010026
3.565000	0.729427	-0.363262	-1.092689	-0.211406	1.051999	-0.840593
3.570000	0.604518	-0.275477	-0.879995	-0.189972	0.857083	-0.667112
3.575000	0.486180	-0.182411	-0.668591	-0.175381	0.666707	-0.491326
3.580000	0.378096	-0.084888	-0.462984	-0.169284	0.485597	-0.316314
3.585000	0.282625	0.010862	-0.271763	-0.169445	0.320076	-0.150632
3.590000	0.200602	0.096351	-0.104252	-0.171446	0.176007	-0.004562
3.595000	0.131271	0.165581	0.034310	-0.171387	0.055980	0.115407
3.600000	0.074068	0.216222	0.142154	-0.167599	-0.039309	0.206908
3.605000	0.027322	0.249731	0.222410	-0.159956	-0.112634	0.272590
3.610000	-0.012010	0.271218	0.283228	-0.149653	-0.170455	0.320109
3.615000	-0.046290	0.285797	0.332087	-0.138279	-0.218456	0.356735
3.620000	-0.076406	0.295844	0.372250	-0.126692	-0.259032	0.385724
3.625000	-0.103027	0.303467	0.406494	-0.115724	-0.294172	0.409896
3.630000	-0.127101	0.310343	0.437444	-0.105794	-0.325940	0.431734
3.635000	-0.149762	0.317311	0.467073	-0.096734	-0.356130	0.452864
3.640000	-0.172532	0.325213	0.497745	-0.088151	-0.386984	0.475135
3.645000	-0.196689	0.334994	0.531682	-0.079850	-0.420525	0.500375
3.650000	-0.222805	0.347065	0.569869	-0.071742	-0.457650	0.529392
3.655000	-0.250330	0.360972	0.611302	-0.063879	-0.497463	0.561342
3.660000	-0.278041	0.375721	0.653762	-0.056395	-0.537977	0.594372
3.665000	-0.304590	0.390044	0.694634	-0.049337	-0.576902	0.626239
3.670000	-0.328079	0.402423	0.730502	-0.042923	-0.611172	0.654094
3.675000	-0.346967	0.412152	0.759119	-0.037634	-0.638598	0.676233
3.680000	-0.361486	0.419318	0.780804	-0.033389	-0.659501	0.692891
3.685000	-0.372980	0.422960	0.795940	-0.028856	-0.674876	0.703732
3.690000	-0.382930	0.422517	0.805446	-0.022856	-0.686109	0.708964
3.695000	-0.392176	0.419405	0.811581	-0.015720	-0.694989	0.710710
3.700000	-0.400145	0.415032	0.815177	-0.008595	-0.701666	0.710261
3.705000	-0.405165	0.408891	0.814055	-0.002151	-0.703917	0.706068
3.710000	-0.406364	0.400402	0.806766	0.003442	-0.700401	0.696959
3.715000	-0.404260	0.389880	0.794140	0.008302	-0.691896	0.683594
3.720000	-0.399478	0.377792	0.777270	0.012520	-0.679396	0.666875
3.725000	-0.392635	0.364825	0.757460	0.016056	-0.664008	0.647951
3.730000	-0.383819	0.352092	0.735911	0.018318	-0.646476	0.628159
3.735000	-0.372196	0.340776	0.712971	0.018140	-0.626521	0.608381
3.740000	-0.357161	0.331717	0.688878	0.014690	-0.603931	0.589241
3.745000	-0.338346	0.324195	0.662541	0.008170	-0.577862	0.569692
3.750000	-0.316158	0.315758	0.631916	0.000231	-0.547370	0.547139
3.755000	-0.291353	0.304406	0.595759	-0.007536	-0.512174	0.519711
3.760000	-0.264701	0.291100	0.555801	-0.015242	-0.473716	0.488958
3.765000	-0.236638	0.278498	0.515136	-0.024168	-0.434037	0.458205
3.770000	-0.204923	0.266860	0.471783	-0.035759	-0.390696	0.426455
3.775000	-0.160889	0.251297	0.412186	-0.052197	-0.330865	0.383062
3.780000	-0.096735	0.224894	0.321630	-0.073993	-0.241543	0.315536
3.785000	-0.012155	0.186102	0.198257	-0.100428	-0.121482	0.221910
3.790000	0.088465	0.137493	0.049028	-0.130457	0.022769	0.107688
3.795000	0.199109	0.080594	-0.118515	-0.161487	0.183380	-0.021893
3.800000	0.313879	0.014213	-0.299666	-0.189424	0.354230	-0.164807
3.805000	0.427938	-0.063069	-0.491006	-0.210657	0.530552	-0.319895
3.810000	0.537813	-0.151960	-0.689774	-0.222772	0.708747	-0.485975
3.815000	0.641916	-0.251445	-0.893361	-0.225438	0.886392	-0.660954
3.820000	0.740332	-0.357738	-1.098071	-0.220891	1.061402	-0.840511
3.825000	0.833369	-0.465022	-1.298390	-0.212665	1.230771	-1.018106
3.830000	0.920848	-0.566824	-1.487672	-0.204396	1.390559	-1.186163
3.835000	1.001011	-0.657490	-1.658501	-0.198332	1.535469	-1.337137
3.840000	1.070710	-0.731639	-1.802349	-0.195763	1.658761	-1.462998
3.845000	1.126519	-0.782968	-1.909487	-0.198349	1.752838	-1.554489
3.850000	1.166821	-0.806028	-1.972849	-0.208303	1.812688	-1.604385
3.855000	1.191515	-0.799494	-1.991009	-0.226334	1.837430	-1.611097
3.860000	1.198627	-0.766926	-1.965552	-0.249243	1.826839	-1.577596
3.865000	1.182839	-0.715083	-1.897923	-0.270059	1.778678	-1.508619
3.870000	1.138569	-0.651712	-1.790281	-0.281087	1.690972	-1.409885
3.875000	1.063713	-0.581722	-1.645435	-0.278278	1.564126	-1.285849
3.880000	0.961561	-0.505942	-1.467503	-0.263052	1.402420	-1.139368
3.885000	0.841651	-0.424857	-1.266509	-0.240636	1.217146	-0.976510
3.890000	0.715547	-0.340204	-1.055751	-0.216704	1.022659	-0.805955
3.895000	0.591426	-0.251526	-0.842952	-0.196241	0.828138	-0.631897
3.900000	0.474662	-0.157624	-0.632286	-0.183042	0.639096	-0.456054
3.905000	0.368730	-0.060964	-0.429694	-0.177689	0.460970	-0.283282
3.910000	0.275677	0.032543	-0.243134	-0.177951	0.299535	-0.121584
3.915000	0.196030	0.115260	-0.080770	-0.179723	0.159810	0.019913
3.920000	0.129154	0.180776	0.051622	-0.178938	0.044763	0.134175
3.925000	0.074349	0.227286	0.152937	-0.174149	-0.045373	0.219522
3.930000	0.029475	0.258252	0.228777	-0.166119	-0.115067	0.281186
3.935000	-0.008449	0.278604	0.287053	-0.155974	-0.170608	0.326582
3.940000	-0.041512	0.292245	0.333757	-0.144761	-0.216662	0.361422
3.945000	-0.070727	0.302136	0.372863	-0.133604	-0.256107	0.389711
3.950000	-0.096888	0.310299	0.407188	-0.123213	-0.291028	0.414241
3.955000	-0.120754	0.317122	0.437876	-0.113373	-0.322525	0.435898
3.960000	-0.143668	0.323959	0.467627	-0.104091	-0.352931	0.457022
3.965000	-0.167190	0.332142	0.499332	-0.095235	-0.384816	0.480052
3.970000	-0.192175	0.341691	0.533866	-0.086323	-0.419180	0.505503
3.975000	-0.218922	0.353107	0.572029	-0.077472	-0.456656	0.534127
3.980000	-0.246939	0.367156	0.614095	-0.069407	-0.497118	0.566525
3.985000	-0.274765	0.382369	0.657134	-0.062125	-0.538032	0.600157
3.990000	-0.300811	0.396297	0.697108	-0.055129	-0.576149	0.631278
3.995000	-0.323381	0.408240	0.731621	-0.048994	-0.609106	0.658099
4.000000	-0.341345	0.417853	0.759198	-0.044172	-0.635399	0.679571
4.005000	-0.355033	0.424126	0.779158	-0.039891	-0.654825	0.694716
4.010000	-0.365989	0.426563	0.792552	-0.034972	-0.668884	0.703856
4.015000	-0.375824	0.425680	0.801505	-0.028784	-0.679731	0.708515
4.020000	-0.384984	0.422198	0.807182	-0.021486	-0.688297	0.709783
4.025000	-0.392433	0.417040	0.809473	-0.014207	-0.693920	0.708128
4.030000	-0.396691	0.410571	0.807263	-0.008014	-0.695103	0.703116
4.035000	-0.397234	0.402008	0.799242	-0.002756	-0.690785	0.693542
4.040000	-0.394573	0.390818	0.785391	0.002168	-0.681252	0.679084
4.045000	-0.389344	0.378421	0.767765	0.006306	-0.668057	0.661751
4.050000	-0.382140	0.365792	0.747932	0.009438	-0.652447	0.643008
4.055000	-0.372844	0.353077	0.725922	0.011412	-0.634373	0.622960
4.060000	-0.360716	0.341941	0.702657	0.010839	-0.613938	0.603099
4.065000	-0.345109	0.333356	0.678465	0.006785	-0.590961	0.584175
4.070000	-0.325431	0.325364	0.650795	0.000039	-0.563624	0.563586
4.075000	-0.302186	0.315824	0.618010	-0.007874	-0.531275	0.539149
4.080000	-0.276476	0.304225	0.580702	-0.016021	-0.494892	0.510913
4.085000	-0.249199	0.291298	0.540497	-0.024306	-0.455931	0.480237
4.090000	-0.220480	0.278629	0.499108	-0.033572	-0.415454	0.449026
4.095000	-0.186092	0.264501	0.450593	-0.045269	-0.367590	0.412860
4.100000	-0.136168	0.241910	0.378078	-0.061050	-0.296900	0.357950
4.105000	-0.066191	0.207563	0.273754	-0.081621	-0.196268	0.277889
4.110000	0.021321	0.164900	0.143579	-0.107514	-0.070586	0.178100
4.115000	0.121540	0.117558	-0.003982	-0.138043	0.072470	0.065573
4.120000	0.229664	0.064084	-0.165580	-0.169595	0.228195	-0.058599
4.125000	0.341123	0.001171	-0.339952	-0.197624	0.393219	-0.195595
4.130000	0.451925	-0.073304	-0.525229	-0.218597	0.564160	-0.345563
4.135000	0.559190	-0.161362	-0.720552	-0.229686	0.738859	-0.509173
4.140000	0.661727	-0.261897	-0.923624	-0.230842	0.915303	-0.684461
4.145000	0.759277	-0.368834	-1.128110	-0.225422	1.089683	-0.864260
4.150000	0.851728	-0.475514	-1.327242	-0.217207	1.258028	-1.040821
4.155000	0.938783	-0.576519	-1.515302	-0.209153	1.416866	-1.207713
4.160000	1.018271	-0.665798	-1.684068	-0.203500	1.560196	-1.356695
4.165000	1.086582	-0.736957	-1.823539	-0.201856	1.680158	-1.478302
4.170000	1.140440	-0.784621	-1.925061	-0.205432	1.769867	-1.564435
4.175000	1.178688	-0.804217	-1.982904	-0.216201	1.825345	-1.609144
4.180000	1.201133	-0.794123	-1.995255	-0.234987	1.845435	-1.610447
4.185000	1.205427	-0.758904	-1.964331	-0.257800	1.830060	-1.572260
4.190000	1.186154	-0.705869	-1.892022	-0.277292	1.777185	-1.499892
4.195000	1.137839	-0.641400	-1.779239	-0.286619	1.684175	-1.397556
4.200000	1.058900	-0.569904	-1.628803	-0.282322	1.551745	-1.269423
4.205000	0.953694	-0.493507	-1.447202	-0.265689	1.386157	-1.120468
4.210000	0.832361	-0.412551	-1.244912	-0.242377	1.199314	-0.956936
4.215000	0.706021	-0.327301	-1.033322	-0.218654	1.004210	-0.785556
4.220000	0.582496	-0.237569	-0.820064	-0.199144	0.809768	-0.610624
4.225000	0.466934	-0.142824	-0.609759	-0.187125	0.621629	-0.434504
4.230000	0.362459	-0.045523	-0.407982	-0.182983	0.444814	-0.261831
4.235000	0.271057	0.047274	-0.223783	-0.183789	0.285696	-0.101908
4.240000	0.193072	0.127373	-0.065699	-0.185009	0.149402	0.035608
4.245000	0.127717	0.190173	0.062456	-0.183534	0.037679	0.145855
4.250000	0.074282	0.234644	0.160363	-0.178359	-0.049699	0.228057
4.255000	0.030557	0.263647	0.233091	-0.169859	-0.116933	0.286792
4.260000	-0.006570	0.282704	0.289274	-0.159426	-0.170806	0.330231
4.265000	-0.039190	0.296160	0.335351	-0.148362	-0.216241	0.364603
4.270000	-0.067976	0.305733	0.373709	-0.137269	-0.255007	0.392276
4.275000	-0.093664	0.312905	0.406569	-0.126579	-0.288809	0.415389
4.280000	-0.117291	0.319454	0.436745	-0.116719	-0.319872	0.436591
4.285000	-0.140237	0.326564	0.466800	-0.107576	-0.350473	0.458049
4.290000	-0.163996	0.334829	0.498825	-0.098630	-0.382680	0.481310
4.295000	-0.189680	0.345011	0.534691	-0.089680	-0.418216	0.507896
4.300000	-0.217131	0.357502	0.574634	-0.081043	-0.457126	0.538169
4.305000	-0.245206	0.371798	0.617003	-0.073088	-0.497796	0.570884
4.310000	-0.272583	0.386792	0.659376	-0.065939	-0.538067	0.604005
4.315000	-0.298005	0.401159	0.699164	-0.059556	-0.575716	0.635272
4.320000	-0.319705	0.413354	0.733059	-0.054068	-0.607813	0.661881
4.325000	-0.336737	0.422577	0.759314	-0.049560	-0.632805	0.682365
4.330000	-0.349896	0.428731	0.778628	-0.045515	-0.651553	0.697069
4.335000	-0.360758	0.430867	0.791624	-0.040477	-0.665328	0.705805
4.340000	-0.370645	0.428771	0.799415	-0.033559	-0.675534	0.709093
4.345000	-0.379871	0.424232	0.804103	-0.025612	-0.683568	0.709180
4.350000	-0.387310	0.418829	0.806139	-0.018197	-0.689038	0.707235
4.355000	-0.391348	0.412055	0.803403	-0.011956	-0.689789	0.701745
4.360000	-0.391640	0.403422	0.795062	-0.006802	-0.685143	0.691945
4.365000	-0.388876	0.392896	0.781772	-0.002321	-0.675873	0.678194
4.370000	-0.383580	0.380693	0.764273	0.001667	-0.662713	0.661046
4.375000	-0.376250	0.367523	0.743773	0.005038	-0.646645	0.641607
4.380000	-0.366744	0.354964	0.721707	0.006801	-0.628417	0.621616
4.385000	-0.354241	0.344522	0.698764	0.005611	-0.607953	0.602341
4.390000	-0.338058	0.335965	0.674023	0.001208	-0.584325	0.583117
4.395000	-0.317988	0.327723	0.645712	-0.005621	-0.556392	0.562013
4.400000	-0.294682	0.317873	0.612555	-0.013390	-0.523793	0.537183
4.405000	-0.268934	0.305486	0.574420	-0.021103	-0.486910	0.508014
4.410000	-0.241617	0.292361	0.533977	-0.029297	-0.447789	0.477086
4.415000	-0.212736	0.280479	0.493215	-0.039111	-0.407581	0.446692
4.420000	-0.176978	0.266844	0.443822	-0.051885	-0.358419	0.410303
4.425000	-0.124483	0.244449	0.368931	-0.069262	-0.284873	0.354135
4.430000	-0.051505	0.210521	0.262026	-0.091808	-0.181017	0.272825
4.435000	0.039195	0.167292	0.128097	-0.119215	-0.051328	0.170543
4.440000	0.142669	0.116976	-0.025693	-0.149906	0.097204	0.052702
4.445000	0.253440	0.059210	-0.194230	-0.180509	0.258462	-0.077954
4.450000	0.366540	-0.008018	-0.374559	-0.206993	0.427874	-0.220881
4.455000	0.478172	-0.087214	-0.565386	-0.225720	0.602498	-0.376779
4.460000	0.585416	-0.179303	-0.764719	-0.234469	0.779500	-0.545031
4.465000	0.687102	-0.281590	-0.968691	-0.234122	0.955972	-0.721850
4.470000	0.783338	-0.388924	-1.172262	-0.227715	1.129066	-0.901351
4.475000	0.874411	-0.495231	-1.369642	-0.218919	1.295604	-1.076685
4.480000	0.959729	-0.594012	-1.553741	-0.211146	1.451151	-1.240005
4.485000	1.036910	-0.679589	-1.716499	-0.206299	1.589680	-1.383381
4.490000	1.102505	-0.746616	-1.849121	-0.205473	1.704122	-1.498649
4.495000	1.153342	-0.788903	-1.942245	-0.210409	1.787237	-1.576828
4.500000	1.188368	-0.801802	-1.990171	-0.223184	1.835129	-1.611946
4.505000	1.207321	-0.785868	-1.993189	-0.243326	1.847815	-1.604488
4.510000	1.207114	-0.746450	-1.953564	-0.265964	1.824817	-1.558853
4.515000	1.181936	-0.690435	-1.872372	-0.283768	1.763405	-1.479637
4.520000	1.127118	-0.624763	-1.751881	-0.290034	1.662190	-1.372156
4.525000	1.042156	-0.552929	-1.595085	-0.282455	1.522611	-1.240156
4.530000	0.932638	-0.475398	-1.408035	-0.263988	1.351388	-1.087400
4.535000	0.809457	-0.393182	-1.202639	-0.240336	1.161684	-0.921348
4.540000	0.683215	-0.307336	-0.990551	-0.217014	0.966349	-0.749335
4.545000	0.560941	-0.216341	-0.777282	-0.198955	0.772623	-0.573668
4.550000	0.447364	-0.119974	-0.567338	-0.189019	0.585838	-0.396819
4.555000	0.345537	-0.022972	-0.368510	-0.186233	0.412255	-0.226022
4.560000	0.257064	0.067532	-0.189532	-0.187405	0.257842	-0.070436
4.565000	0.181684	0.144524	-0.037160	-0.188336	0.126349	0.061987
4.570000	0.118778	0.203268	0.084490	-0.185934	0.019796	0.166137
4.575000	0.067493	0.243807	0.176313	-0.179729	-0.062827	0.242556
4.580000	0.025135	0.270608	0.245473	-0.170748	-0.127212	0.297960
4.585000	-0.011334	0.288571	0.299905	-0.160063	-0.179694	0.339756
4.590000	-0.043376	0.300957	0.344332	-0.148714	-0.223843	0.372557
4.595000	-0.071621	0.310288	0.381909	-0.137794	-0.261846	0.399640
4.600000	-0.096961	0.318135	0.415096	-0.127695	-0.295636	0.423331
4.605000	-0.120262	0.324855	0.445117	-0.118122	-0.326422	0.444543
4.610000	-0.143133	0.331772	0.474905	-0.108911	-0.356824	0.465735
4.615000	-0.167079	0.340299	0.507378	-0.100009	-0.389397	0.489406
4.620000	-0.192696	0.350457	0.543153	-0.091083	-0.424843	0.515926
4.625000	-0.219721	0.362441	0.582162	-0.082399	-0.462967	0.545366
4.630000	-0.247431	0.376568	0.623999	-0.074557	-0.503120	0.577677
4.635000	-0.274666	0.391161	0.665828	-0.067259	-0.542994	0.610253
4.640000	-0.299914	0.404411	0.704325	-0.060332	-0.579797	0.640129
4.645000	-0.321425	0.416032	0.737457	-0.054621	-0.611346	0.665967
4.650000	-0.338416	0.425414	0.763830	-0.050228	-0.636382	0.686610
4.655000	-0.351565	0.430865	0.782429	-0.045784	-0.654711	0.700496
4.660000	-0.362392	0.431852	0.794245	-0.040103	-0.667784	0.707887
4.665000	-0.372246	0.429619	0.801866	-0.033124	-0.677874	0.710998
4.670000	-0.381126	0.425326	0.806453	-0.025519	-0.685649	0.711168
4.675000	-0.387698	0.419651	0.807349	-0.018448	-0.689960	0.708409
4.680000	-0.390628	0.412483	0.803111	-0.012618	-0.689205	0.701823
4.685000	-0.389859	0.402895	0.792754	-0.007526	-0.682782	0.690308
4.690000	-0.386164	0.391102	0.777265	-0.002851	-0.671706	0.674557
4.695000	-0.380297	0.378649	0.758947	0.000951	-0.657742	0.656791
4.700000	-0.372669	0.365960	0.738629	0.003873	-0.641608	0.637735
4.705000	-0.362756	0.353401	0.716157	0.005401	-0.622910	0.617509
4.710000	-0.349771	0.343091	0.692862	0.003857	-0.601964	0.598107
4.715000	-0.333097	0.335345	0.668442	-0.001297	-0.578239	0.579536
4.720000	-0.312459	0.327300	0.639759	-0.008568	-0.549763	0.558331
4.725000	-0.288529	0.316720	0.605249	-0.016276	-0.516023	0.532299
4.730000	-0.262393	0.303991	0.566384	-0.024017	-0.478495	0.502511
4.735000	-0.234847	0.290757	0.525604	-0.032279	-0.439046	0.471326
4.740000	-0.205231	0.277752	0.482983	-0.041870	-0.397340	0.439210
4.745000	-0.166287	0.260238	0.426525	-0.054243	-0.342260	0.396503
4.750000	-0.108901	0.231970	0.340871	-0.071054	-0.259676	0.330730
4.755000	-0.031976	0.193059	0.225034	-0.093001	-0.148385	0.241386
4.760000	0.060300	0.148254	0.087954	-0.120409	-0.015966	0.136374
4.765000	0.163065	0.099885	-0.063179	-0.151814	0.130622	0.021192
4.770000	0.271877	0.044806	-0.227072	-0.182837	0.288068	-0.105232
4.775000	0.382803	-0.020877	-0.403681	-0.208958	0.454077	-0.245119
4.780000	0.492351	-0.099232	-0.591584	-0.226967	0.625810	-0.398843
4.785000	0.598004	-0.191228	-0.789232	-0.234852	0.800920	-0.566068
4.790000	0.698949	-0.294332	-0.993281	-0.233606	0.977009	-0.743403
4.795000	0.794850	-0.401951	-1.196802	-0.226840	1.149880	-0.923040
4.800000	0.885589	-0.507667	-1.393255	-0.218193	1.315691	-1.097497
4.805000	0.970382	-0.605760	-1.576142	-0.210515	1.470235	-1.259721
4.810000	1.046506	-0.689694	-1.736200	-0.206005	1.606595	-1.400590
4.815000	1.110337	-0.753273	-1.863609	-0.206151	1.717008	-1.510857
4.820000	1.159113	-0.791398	-1.950511	-0.212301	1.795342	-1.583041
4.825000	1.192183	-0.800405	-1.992587	-0.226193	1.838727	-1.612534
4.830000	1.208813	-0.780586	-1.989399	-0.247237	1.846488	-1.599251
4.835000	1.205412	-0.737971	-1.943383	-0.269877	1.817957	-1.548080
4.840000	1.176280	-0.680306	-1.856586	-0.286351	1.751025	-1.464674
4.845000	1.117163	-0.613498	-1.730661	-0.290791	1.644191	-1.353400
4.850000	1.028347	-0.540733	-1.569079	-0.281524	1.499624	-1.218100
4.855000	0.916389	-0.463074	-1.379463	-0.261722	1.325510	-1.063789
4.860000	0.792393	-0.380834	-1.173227	-0.237613	1.134850	-0.897237
4.865000	0.666440	-0.294538	-0.960979	-0.214718	0.939590	-0.724873
4.870000	0.545207	-0.203464	-0.748671	-0.197306	0.747020	-0.549715
4.875000	0.433141	-0.107566	-0.540708	-0.187971	0.562252	-0.374281
4.880000	0.332936	-0.010912	-0.343847	-0.185921	0.390741	-0.204820
4.885000	0.246175	0.078545	-0.167631	-0.187477	0.238911	-0.051434
4.890000	0.172581	0.153148	-0.019433	-0.188060	0.110859	0.077201
4.895000	0.111238	0.209620	0.098381	-0.185247	0.007423	0.177824
4.900000	0.061088	0.248586	0.187499	-0.178790	-0.072984	0.251774
4.905000	0.019625	0.273629	0.254004	-0.169310	-0.135319	0.304629
4.910000	-0.016068	0.290024	0.306092	-0.158169	-0.185999	0.344167
4.915000	-0.047594	0.301549	0.349143	-0.146621	-0.229056	0.375677
4.920000	-0.075541	0.309943	0.385484	-0.135332	-0.266173	0.401505
4.925000	-0.100701	0.316667	0.417368	-0.124688	-0.299108	0.423795
4.930000	-0.124135	0.323427	0.447562	-0.115062	-0.330069	0.445131
4.935000	-0.147516	0.331191	0.478707	-0.106045	-0.361550	0.467594
4.940000	-0.172027	0.340060	0.512086	-0.097014	-0.394973	0.491986
4.945000	-0.198230	0.350809	0.549039	-0.088091	-0.431435	0.519527
4.950000	-0.225907	0.364175	0.590082	-0.079829	-0.471111	0.550940
4.955000	-0.253892	0.378883	0.632774	-0.072164	-0.511917	0.584080
4.960000	-0.280922	0.393031	0.673953	-0.064726	-0.551298	0.616023
4.965000	-0.305521	0.405706	0.711227	-0.057842	-0.587020	0.644861
4.970000	-0.325921	0.416096	0.742017	-0.052062	-0.616574	0.668637
4.975000	-0.341707	0.423972	0.765679	-0.047496	-0.639349	0.686845
4.980000	-0.354108	0.428993	0.783102	-0.043235	-0.656568	0.699803
4.985000	-0.364620	0.430101	0.794720	-0.037805	-0.669345	0.707150
4.990000	-0.374261	0.427560	0.801821	-0.030772	-0.679011	0.709783
4.995000	-0.382924	0.423350	0.806274	-0.023339	-0.686584	0.709923
5.000000	-0.389158	0.418143	0.807300	-0.016734	-0.690775	0.707510
5.005000	-0.391648	0.410771	0.802419	-0.011041	-0.689395	0.700436
5.010000	-0.390735	0.400904	0.791639	-0.005871	-0.682644	0.688515
5.015000	-0.387164	0.389338	0.776502	-0.001255	-0.671842	0.673098
5.020000	-0.381328	0.376658	0.757986	0.002696	-0.657783	0.655087
5.025000	-0.373579	0.363619	0.737199	0.005750	-0.641308	0.635557
5.030000	-0.363377	0.351757	0.715134	0.006709	-0.622678	0.615969
5.035000	-0.349885	0.342072	0.691958	0.004511	-0.601508	0.596997
5.040000	-0.332477	0.334080	0.666556	-0.000926	-0.576792	0.577717
5.045000	-0.311257	0.326076	0.637333	-0.008556	-0.547668	0.556224
5.050000	-0.287096	0.316195	0.603291	-0.016801	-0.514065	0.530865
5.055000	-0.260880	0.303595	0.564476	-0.024662	-0.476519	0.501181
5.060000	-0.233332	0.290181	0.523512	-0.032822	-0.436964	0.469786
5.065000	-0.203213	0.277071	0.480284	-0.042642	-0.394617	0.437259
5.070000	-0.162021	0.258464	0.420485	-0.055682	-0.336310	0.391992
5.075000	-0.101353	0.228606	0.329959	-0.073470	-0.249018	0.322488
5.080000	-0.021127	0.188987	0.210114	-0.096914	-0.133507	0.230421
5.085000	0.074354	0.143427	0.069074	-0.125736	0.003049	0.122687
5.090000	0.180115	0.092569	-0.087546	-0.157434	0.154534	0.002900
5.095000	0.291187	0.034247	-0.256940	-0.187889	0.316461	-0.128572
5.100000	0.403206	-0.034362	-0.437568	-0.212952	0.485420	-0.272468
5.105000	0.512884	-0.116197	-0.629081	-0.229027	0.659313	-0.430286
5.110000	0.617929	-0.211484	-0.829413	-0.234661	0.835623	-0.600962
5.115000	0.717676	-0.315895	-1.033571	-0.231969	1.011083	-0.779114
5.120000	0.812121	-0.423451	-1.235571	-0.224399	1.182235	-0.957836
5.125000	0.901308	-0.528184	-1.429492	-0.215423	1.345687	-1.130264
5.130000	0.984015	-0.623669	-1.607684	-0.208046	1.496317	-1.288271
5.135000	1.057420	-0.704131	-1.761551	-0.203972	1.627533	-1.423561
5.140000	1.118055	-0.763815	-1.881870	-0.204521	1.732007	-1.527486
5.145000	1.163435	-0.796600	-1.960035	-0.211792	1.803336	-1.591544
5.150000	1.193076	-0.799377	-1.992453	-0.227302	1.839165	-1.611863
5.155000	1.206070	-0.774608	-1.980678	-0.249105	1.839869	-1.590764
5.160000	1.198200	-0.728508	-1.926708	-0.271176	1.804165	-1.532989
5.165000	1.163377	-0.668260	-1.831637	-0.285856	1.729171	-1.443315
5.170000	1.098089	-0.600354	-1.698444	-0.287367	1.614578	-1.327211
5.175000	1.003806	-0.527247	-1.531053	-0.275142	1.463501	-1.188360
5.180000	0.888128	-0.448648	-1.336777	-0.253734	1.284549	-1.030815
5.185000	0.762624	-0.365477	-1.128101	-0.229292	1.091610	-0.862318
5.190000	0.636858	-0.278483	-0.915341	-0.206908	0.896162	-0.689255
5.195000	0.516995	-0.186018	-0.703013	-0.191090	0.704371	-0.513282
5.200000	0.407098	-0.089073	-0.496171	-0.183611	0.521502	-0.337891
5.205000	0.309734	0.006634	-0.303101	-0.182655	0.353820	-0.171165
5.210000	0.225894	0.093839	-0.132055	-0.184597	0.206662	-0.022064
5.215000	0.154817	0.166030	0.011213	-0.185241	0.082910	0.102331
5.220000	0.095944	0.219333	0.123388	-0.182025	-0.015845	0.197870
5.225000	0.047951	0.254697	0.206745	-0.174734	-0.091680	0.266413
5.230000	0.007817	0.277402	0.269585	-0.164671	-0.151132	0.315803
5.235000	-0.027063	0.292565	0.319628	-0.153287	-0.200162	0.353449
5.240000	-0.057778	0.302893	0.360671	-0.141517	-0.241591	0.383109
5.245000	-0.084969	0.310760	0.395729	-0.130361	-0.277531	0.407891
5.250000	-0.109507	0.317559	0.427065	-0.120119	-0.309790	0.429909
5.255000	-0.132520	0.324025	0.456545	-0.110565	-0.340097	0.450662
5.260000	-0.155774	0.331751	0.487525	-0.101600	-0.371409	0.473009
5.265000	-0.180447	0.341545	0.521993	-0.093010	-0.405554	0.498564
5.270000	-0.206872	0.353017	0.559889	-0.084377	-0.442689	0.527066
5.275000	-0.234641	0.366433	0.601074	-0.076090	-0.482500	0.558590
5.280000	-0.262678	0.381579	0.644258	-0.068648	-0.523620	0.592267
5.285000	-0.289583	0.396428	0.686010	-0.061687	-0.563259	0.624946
5.290000	-0.313661	0.409393	0.723053	-0.055271	-0.598547	0.653818
5.295000	-0.333442	0.420014	0.753455	-0.049983	-0.627520	0.677503
5.300000	-0.348761	0.427410	0.776172	-0.045408	-0.649480	0.694888
5.305000	-0.360723	0.430591	0.791314	-0.040339	-0.665128	0.705467
5.310000	-0.371007	0.430004	0.801011	-0.034062	-0.676665	0.710727
5.315000	-0.380665	0.426844	0.807510	-0.026661	-0.685993	0.712654
5.320000	-0.389172	0.421929	0.811102	-0.018912	-0.692978	0.711891
5.325000	-0.394911	0.415858	0.810769	-0.012093	-0.696099	0.708193
5.330000	-0.396920	0.408325	0.805245	-0.006584	-0.694070	0.700654
5.335000	-0.395516	0.398293	0.793809	-0.001604	-0.686656	0.688260
5.340000	-0.391308	0.385988	0.777296	0.003072	-0.674694	0.671622
5.345000	-0.384974	0.372948	0.757922	0.006944	-0.659851	0.652907
5.350000	-0.376741	0.360097	0.736838	0.009610	-0.642925	0.633315
5.355000	-0.365709	0.348169	0.713878	0.010126	-0.623300	0.613173
5.360000	-0.351132	0.338686	0.689817	0.007186	-0.600992	0.593806
5.365000	-0.332653	0.331148	0.663800	0.000869	-0.575302	0.574433
5.370000	-0.310727	0.322599	0.633326	-0.006854	-0.545049	0.551903
5.375000	-0.286349	0.311360	0.597710	-0.014440	-0.510411	0.524851
5.380000	-0.260246	0.298470	0.558715	-0.022068	-0.472827	0.494896
5.385000	-0.232706	0.285858	0.518564	-0.030687	-0.433746	0.464433
5.390000	-0.201610	0.273286	0.474896	-0.041382	-0.390581	0.431963
5.395000	-0.158277	0.255876	0.414153	-0.056348	-0.330493	0.386841
5.400000	-0.095064	0.227587	0.322651	-0.076513	-0.241168	0.317680
5.405000	-0.011895	0.187828	0.199724	-0.101575	-0.122178	0.223753
5.410000	0.086781	0.140372	0.053591	-0.131147	0.019162	0.111985
5.415000	0.195269	0.086452	-0.108816	-0.162651	0.175563	-0.012912
5.420000	0.308065	0.023679	-0.284386	-0.191532	0.342051	-0.150519
5.425000	0.420512	-0.049964	-0.470476	-0.213936	0.514412	-0.300476
5.430000	0.529301	-0.135839	-0.665141	-0.227165	0.689611	-0.462446
5.435000	0.632957	-0.233840	-0.866797	-0.230430	0.865883	-0.635452
5.440000	0.731499	-0.340041	-1.071540	-0.226008	1.040985	-0.814976
5.445000	0.824971	-0.447665	-1.272636	-0.217837	1.211053	-0.993216
5.450000	0.913226	-0.550432	-1.463658	-0.209459	1.372294	-1.162835
5.455000	0.994716	-0.643091	-1.637807	-0.203011	1.519887	-1.316876
5.460000	1.066147	-0.719573	-1.785720	-0.200094	1.646525	-1.446431
5.465000	1.123904	-0.773704	-1.897607	-0.202188	1.744469	-1.542281
5.470000	1.166158	-0.800614	-1.966772	-0.211047	1.808798	-1.597751
5.475000	1.192712	-0.797851	-1.990562	-0.227973	1.837863	-1.609890
5.480000	1.201873	-0.768012	-1.969885	-0.250489	1.831214	-1.580725
5.485000	1.188803	-0.718284	-1.907087	-0.271654	1.787412	-1.515758
5.490000	1.147647	-0.656110	-1.803757	-0.283789	1.703993	-1.420204
5.495000	1.075707	-0.586202	-1.661909	-0.282616	1.580563	-1.297947
5.500000	0.975873	-0.510627	-1.486501	-0.268610	1.421652	-1.153042
5.505000	0.857305	-0.430652	-1.287957	-0.246328	1.238567	-0.992239
5.510000	0.731462	-0.347036	-1.078498	-0.221949	1.044980	-0.823032
5.515000	0.606809	-0.259121	-0.865930	-0.200738	0.850286	-0.649549
5.520000	0.488967	-0.165939	-0.654906	-0.186501	0.660415	-0.473915
5.525000	0.381778	-0.069267	-0.451046	-0.180428	0.480831	-0.300403
5.530000	0.287333	0.025396	-0.261936	-0.180554	0.317121	-0.136566
5.535000	0.206118	0.109870	-0.096248	-0.182436	0.174571	0.007865
5.540000	0.137456	0.177444	0.039988	-0.181807	0.056273	0.125535
5.545000	0.080724	0.226409	0.145685	-0.177323	-0.037505	0.214828
5.550000	0.034246	0.259221	0.224976	-0.169433	-0.110118	0.279551
5.555000	-0.004837	0.280121	0.284958	-0.158935	-0.167313	0.326248
5.560000	-0.038920	0.293864	0.332785	-0.147192	-0.214604	0.361796
5.565000	-0.069019	0.303791	0.372811	-0.135546	-0.255091	0.390636
5.570000	-0.095725	0.311520	0.407245	-0.124589	-0.290390	0.414979
5.575000	-0.119920	0.317912	0.437832	-0.114310	-0.322018	0.436329
5.580000	-0.143012	0.324582	0.467593	-0.104829	-0.352533	0.457362
5.585000	-0.166548	0.332358	0.498906	-0.095730	-0.384200	0.479930
5.590000	-0.191558	0.341648	0.533206	-0.086654	-0.418443	0.505097
5.595000	-0.218452	0.353479	0.571930	-0.077958	-0.456327	0.534285
5.600000	-0.246597	0.367754	0.614351	-0.069950	-0.497068	0.567018
5.605000	-0.274574	0.382496	0.657070	-0.062308	-0.537885	0.600193
5.610000	-0.301079	0.396324	0.697402	-0.054990	-0.576473	0.631463
5.615000	-0.324447	0.408763	0.733210	-0.048680	-0.610639	0.659318
5.620000	-0.343216	0.418671	0.761886	-0.043564	-0.638031	0.681595
5.625000	-0.357638	0.425172	0.782810	-0.038991	-0.658437	0.697428
5.630000	-0.369253	0.428187	0.797440	-0.034026	-0.673590	0.707616
5.635000	-0.379519	0.427605	0.807124	-0.027762	-0.685108	0.712871
5.640000	-0.389029	0.423975	0.813004	-0.020176	-0.693994	0.714170
5.645000	-0.397064	0.418986	0.816050	-0.012657	-0.700392	0.713048
5.650000	-0.401939	0.412770	0.814709	-0.006253	-0.702432	0.708685
5.655000	-0.402882	0.404291	0.807173	-0.000814	-0.698626	0.699439
5.660000	-0.400546	0.393706	0.794252	0.003949	-0.689817	0.685868
5.665000	-0.395730	0.382115	0.777845	0.007861	-0.677563	0.669703
5.670000	-0.388936	0.369730	0.758666	0.011088	-0.662568	0.651479
5.675000	-0.380133	0.356872	0.737004	0.013430	-0.644979	0.631549
5.680000	-0.368692	0.345526	0.714218	0.013375	-0.625219	0.611843
5.685000	-0.353916	0.336541	0.690457	0.010032	-0.602969	0.592938
5.690000	-0.335234	0.328238	0.663472	0.004039	-0.576603	0.572564
5.695000	-0.313042	0.318773	0.631816	-0.003309	-0.545514	0.548823
5.700000	-0.288169	0.307218	0.595387	-0.010998	-0.510121	0.521119
5.705000	-0.261411	0.293934	0.555344	-0.018777	-0.471554	0.490331
5.710000	-0.233282	0.281011	0.514293	-0.027556	-0.431613	0.459169
5.715000	-0.200362	0.267114	0.467476	-0.038540	-0.385576	0.424116
5.720000	-0.152505	0.244629	0.397134	-0.053188	-0.317334	0.370522
5.725000	-0.084356	0.210304	0.294660	-0.072716	-0.218825	0.291541
5.730000	0.001607	0.168045	0.166437	-0.097949	-0.095164	0.193113
5.735000	0.100463	0.121376	0.020913	-0.128079	0.045928	0.082150
5.740000	0.207344	0.069223	-0.138121	-0.159675	0.199454	-0.039778
5.745000	0.317857	0.008471	-0.309386	-0.188405	0.362138	-0.173733
5.750000	0.428342	-0.063990	-0.492332	-0.210358	0.531551	-0.321193
5.755000	0.535876	-0.150452	-0.686327	-0.222524	0.705639	-0.483114
5.760000	0.638823	-0.249416	-0.888239	-0.224824	0.881649	-0.656825
5.765000	0.736790	-0.355622	-1.092412	-0.220068	1.056090	-0.836022
5.770000	0.829666	-0.462986	-1.292653	-0.211703	1.225321	-1.013618
5.775000	0.917162	-0.565195	-1.482356	-0.203208	1.385362	-1.182154
5.780000	0.997284	-0.655851	-1.653135	-0.197126	1.530219	-1.333093
5.785000	1.066767	-0.729470	-1.796236	-0.194738	1.652955	-1.458216
5.790000	1.122343	-0.780748	-1.903091	-0.197220	1.746734	-1.549514
5.795000	1.162442	-0.804050	-1.966492	-0.206918	1.806490	-1.599572
5.800000	1.186867	-0.797346	-1.984214	-0.224890	1.830824	-1.605934
5.805000	1.193713	-0.764857	-1.958570	-0.247600	1.819970	-1.572370
5.810000	1.177686	-0.713413	-1.891099	-0.268048	1.771763	-1.503715
5.815000	1.133020	-0.649826	-1.782846	-0.278972	1.683475	-1.404503
5.820000	1.057709	-0.579480	-1.637189	-0.276105	1.555900	-1.279794
5.825000	0.955326	-0.504155	-1.459481	-0.260483	1.394188	-1.133705
5.830000	0.835347	-0.423549	-1.258895	-0.237751	1.209111	-0.971359
5.835000	0.709171	-0.338727	-1.047898	-0.213876	1.014444	-0.800568
5.840000	0.585031	-0.250017	-0.835048	-0.193421	0.819882	-0.626462
5.845000	0.468146	-0.156039	-0.624185	-0.180195	0.630658	-0.450463
5.850000	0.361903	-0.058917	-0.420820	-0.174930	0.451905	-0.276976
5.855000	0.268579	0.034412	-0.234167	-0.174932	0.290260	-0.115328
5.860000	0.188707	0.116263	-0.072444	-0.176074	0.150776	0.025299
5.865000	0.121552	0.181310	0.059758	-0.174857	0.035676	0.139181
5.870000	0.066535	0.227663	0.161128	-0.169856	-0.054613	0.224468
5.875000	0.021590	0.258226	0.236636	-0.161552	-0.124157	0.285709
5.880000	-0.016568	0.278471	0.295038	-0.151210	-0.179906	0.331115
5.885000	-0.050129	0.292397	0.342526	-0.139873	-0.226700	0.366573
5.890000	-0.079705	0.301979	0.381685	-0.128330	-0.266383	0.394713
5.895000	-0.106000	0.309508	0.415507	-0.117495	-0.301092	0.418588
5.900000	-0.129966	0.316457	0.446423	-0.107671	-0.332778	0.440449
5.905000	-0.152934	0.323594	0.476528	-0.098531	-0.363420	0.461950
5.910000	-0.176676	0.332010	0.508686	-0.089682	-0.395694	0.485376
5.915000	-0.202453	0.342396	0.544849	-0.080797	-0.431455	0.512251
5.920000	-0.230022	0.354484	0.584505	-0.071858	-0.470267	0.542125
5.925000	-0.258330	0.368151	0.626480	-0.063405	-0.510845	0.574250
5.930000	-0.286071	0.382693	0.668764	-0.055785	-0.551274	0.607059
5.935000	-0.311925	0.396221	0.708147	-0.048668	-0.588939	0.637607
5.940000	-0.334256	0.407751	0.742007	-0.042433	-0.621380	0.663813
5.945000	-0.352113	0.417284	0.769397	-0.037626	-0.647504	0.685130
5.950000	-0.366061	0.424322	0.790383	-0.033637	-0.667673	0.701310
5.955000	-0.377483	0.427294	0.804776	-0.028758	-0.682577	0.711336
5.960000	-0.387734	0.426214	0.813948	-0.022216	-0.693791	0.716007
5.965000	-0.397283	0.422628	0.819910	-0.014633	-0.702746	0.717379
5.970000	-0.405080	0.417329	0.822408	-0.007072	-0.708690	0.715762
5.975000	-0.409484	0.410189	0.819673	-0.000407	-0.709654	0.710061
5.980000	-0.410089	0.401069	0.811158	0.005207	-0.705087	0.699880
5.985000	-0.407509	0.389666	0.797176	0.010302	-0.695525	0.685223
5.990000	-0.402332	0.376723	0.779054	0.014785	-0.682073	0.667288
5.995000	-0.395285	0.363723	0.759008	0.018222	-0.666431	0.648209
6.000000	-0.386356	0.351641	0.737997	0.020043	-0.649146	0.629103
6.005000	-0.374607	0.341123	0.715730	0.019332	-0.629506	0.610174
6.010000	-0.359400	0.332654	0.692055	0.015442	-0.607058	0.591616
6.015000	-0.340253	0.324963	0.665216	0.008828	-0.580508	0.571680
6.020000	-0.317513	0.315310	0.632823	0.001272	-0.548676	0.547404
6.025000	-0.292206	0.302629	0.594835	-0.006017	-0.512133	0.518151
6.030000	-0.265373	0.288825	0.554198	-0.013540	-0.473179	0.486719
6.035000	-0.237100	0.275727	0.512827	-0.022301	-0.432971	0.455271
6.040000	-0.202555	0.260849	0.463404	-0.033657	-0.384491	0.418148
6.045000	-0.151704	0.237719	0.389423	-0.049661	-0.312420	0.362081
6.050000	-0.080399	0.203513	0.283912	-0.071080	-0.210335	0.281415
6.055000	0.008577	0.160747	0.152170	-0.097759	-0.082904	0.180663
6.060000	0.110183	0.112557	0.002374	-0.128599	0.062244	0.066355
6.065000	0.219355	0.058098	-0.161258	-0.160187	0.219747	-0.059559
6.070000	0.331484	-0.006055	-0.337538	-0.187886	0.386260	-0.198373
6.075000	0.442551	-0.082266	-0.524817	-0.208010	0.558510	-0.350499
6.080000	0.549539	-0.171523	-0.721062	-0.218248	0.733582	-0.515334
6.085000	0.651368	-0.272350	-0.923718	-0.218827	0.909376	-0.690550
6.090000	0.748100	-0.379618	-1.127718	-0.212743	1.083004	-0.870260
6.095000	0.839801	-0.486427	-1.326227	-0.204021	1.250556	-1.046536
6.100000	0.925986	-0.586700	-1.512687	-0.195887	1.407968	-1.212081
6.105000	1.004323	-0.674987	-1.679310	-0.190142	1.549395	-1.359253
6.110000	1.071183	-0.744962	-1.816145	-0.188344	1.666999	-1.478655
6.115000	1.123377	-0.790397	-1.913773	-0.192246	1.753499	-1.561253
6.120000	1.159985	-0.807236	-1.967221	-0.203660	1.805493	-1.601833
6.125000	1.180855	-0.795078	-1.975933	-0.222729	1.822572	-1.599843
6.130000	1.183252	-0.758042	-1.941294	-0.245495	1.803956	-1.558461
6.135000	1.161481	-0.703437	-1.864919	-0.264452	1.747292	-1.482840
6.140000	1.110361	-0.638649	-1.749010	-0.272343	1.650858	-1.378515
6.145000	1.028795	-0.567352	-1.596147	-0.266414	1.515510	-1.249096
6.150000	0.921614	-0.490366	-1.411980	-0.248981	1.347301	-1.098320
6.155000	0.799355	-0.408609	-1.207965	-0.225597	1.158926	-0.933329
6.160000	0.672998	-0.322920	-0.995918	-0.202117	0.963549	-0.761432
6.165000	0.549997	-0.232516	-0.782513	-0.183298	0.769324	-0.586027
6.170000	0.435293	-0.137334	-0.572627	-0.172026	0.581922	-0.409896
6.175000	0.331963	-0.040886	-0.372849	-0.168054	0.406923	-0.238870
6.180000	0.241780	0.050645	-0.191135	-0.168831	0.249943	-0.081112
6.185000	0.164762	0.129716	-0.035046	-0.170017	0.115360	0.054657
6.190000	0.100200	0.190939	0.090739	-0.168089	0.005462	0.162627
6.195000	0.047346	0.233919	0.186573	-0.162388	-0.080383	0.242771
6.200000	0.003886	0.262105	0.258219	-0.153570	-0.146839	0.300409
6.205000	-0.033136	0.280136	0.313272	-0.142606	-0.199998	0.342604
6.210000	-0.065650	0.292407	0.358058	-0.130918	-0.244628	0.375546
6.215000	-0.094444	0.301503	0.395947	-0.119545	-0.283127	0.402672
6.220000	-0.120246	0.308704	0.428950	-0.108806	-0.317078	0.425884
6.225000	-0.143965	0.315271	0.459236	-0.098903	-0.348258	0.447161
6.230000	-0.167201	0.322876	0.490077	-0.089879	-0.379479	0.469359
6.235000	-0.191369	0.331925	0.523294	-0.081150	-0.412611	0.493761
6.240000	-0.217340	0.342112	0.559452	-0.072037	-0.448480	0.520518
6.245000	-0.245068	0.354303	0.599371	-0.063067	-0.487537	0.550604
6.250000	-0.273542	0.368566	0.642108	-0.054863	-0.528650	0.583513
6.255000	-0.301204	0.383034	0.684237	-0.047244	-0.568944	0.616189
6.260000	-0.326639	0.396561	0.723200	-0.040370	-0.606124	0.646494
6.265000	-0.348288	0.408390	0.756679	-0.034700	-0.637953	0.672653
6.270000	-0.365335	0.417181	0.782515	-0.029933	-0.662711	0.692645
6.275000	-0.378544	0.422179	0.800724	-0.025193	-0.680850	0.706043
6.280000	-0.389577	0.423560	0.813138	-0.019620	-0.694387	0.714008
6.285000	-0.399738	0.421751	0.821489	-0.012709	-0.705075	0.717784
6.290000	-0.409072	0.417604	0.826675	-0.004926	-0.713458	0.718384
6.295000	-0.416354	0.412469	0.828823	0.002243	-0.718903	0.716660
6.300000	-0.420090	0.406014	0.826104	0.008127	-0.719490	0.711363
6.305000	-0.419979	0.396849	0.816829	0.013354	-0.714071	0.700717
6.310000	-0.416833	0.385224	0.802058	0.018250	-0.703727	0.685477
6.315000	-0.411292	0.372517	0.783809	0.022387	-0.689992	0.667605
6.320000	-0.403788	0.359268	0.763056	0.025704	-0.673677	0.647973
6.325000	-0.394046	0.346445	0.740491	0.027483	-0.655025	0.627542
6.330000	-0.381407	0.336030	0.717437	0.026198	-0.634417	0.608219
6.335000	-0.365231	0.327907	0.693138	0.021549	-0.611049	0.589501
6.340000	-0.345140	0.319623	0.664763	0.014732	-0.583067	0.568335
6.345000	-0.321845	0.309460	0.631305	0.007151	-0.550301	0.543151
6.350000	-0.296300	0.297082	0.593382	-0.000451	-0.513658	0.514109
6.355000	-0.269260	0.283701	0.552961	-0.008337	-0.474709	0.483046
6.360000	-0.240563	0.271353	0.511916	-0.017777	-0.434444	0.452221
6.365000	-0.204739	0.258103	0.462842	-0.030810	-0.385427	0.416237
6.370000	-0.151903	0.236375	0.388278	-0.048770	-0.311873	0.360644
6.375000	-0.078199	0.202402	0.280600	-0.071709	-0.207153	0.278861
6.380000	0.013538	0.158978	0.145440	-0.099602	-0.076153	0.175756
6.385000	0.118105	0.108343	-0.009762	-0.130740	0.073824	0.056916
6.390000	0.230030	0.049281	-0.180749	-0.161260	0.237163	-0.075903
6.395000	0.343892	-0.019611	-0.363503	-0.187223	0.408414	-0.221191
6.400000	0.455336	-0.099979	-0.555315	-0.205165	0.583499	-0.378334
6.405000	0.561870	-0.193430	-0.755300	-0.212719	0.760468	-0.547749
6.410000	0.662886	-0.297287	-0.960173	-0.211079	0.937073	-0.725994
6.415000	0.758509	-0.405303	-1.163812	-0.203923	1.109852	-0.905929
6.420000	0.849008	-0.511561	-1.360569	-0.194825	1.275699	-1.080874
6.425000	0.933695	-0.610138	-1.543833	-0.186806	1.430401	-1.243595
6.430000	1.009871	-0.694669	-1.704540	-0.181982	1.567165	-1.385183
6.435000	1.074055	-0.759666	-1.833722	-0.181513	1.678805	-1.497292
6.440000	1.123425	-0.799790	-1.923216	-0.186851	1.758978	-1.572127
6.445000	1.157058	-0.810464	-1.967522	-0.200106	1.803976	-1.603870
6.450000	1.174297	-0.791944	-1.966241	-0.220752	1.813190	-1.592438
6.455000	1.171910	-0.750543	-1.922453	-0.243276	1.786530	-1.543254
6.460000	1.144098	-0.693626	-1.837724	-0.260080	1.721555	-1.461475
6.465000	1.086210	-0.627017	-1.713227	-0.265115	1.616255	-1.351140
6.470000	0.998339	-0.554345	-1.552685	-0.256340	1.472834	-1.216494
6.475000	0.886858	-0.476645	-1.363504	-0.236836	1.299246	-1.062410
6.480000	0.762802	-0.394111	-1.156914	-0.212864	1.108348	-0.895484
6.485000	0.636564	-0.307839	-0.944404	-0.189789	0.912772	-0.722982
6.490000	0.515063	-0.217002	-0.732066	-0.172086	0.720030	-0.547944
6.495000	0.402611	-0.120942	-0.523553	-0.162622	0.534721	-0.372099
6.500000	0.301812	-0.024010	-0.325822	-0.160389	0.362365	-0.201976
6.505000	0.214310	0.065739	-0.148571	-0.161687	0.209509	-0.047823
6.510000	0.139903	0.141167	0.001263	-0.162276	0.080044	0.082232
6.515000	0.077807	0.198531	0.120725	-0.159544	-0.024779	0.184322
6.520000	0.026975	0.237747	0.210772	-0.152837	-0.106115	0.258953
6.525000	-0.015222	0.262883	0.278105	-0.142987	-0.169353	0.312339
6.530000	-0.051570	0.279569	0.331139	-0.131635	-0.220957	0.352592
6.535000	-0.083480	0.291146	0.374626	-0.119896	-0.264488	0.384384
6.540000	-0.111591	0.299619	0.411210	-0.108557	-0.301840	0.410397
6.545000	-0.136876	0.306969	0.443845	-0.098203	-0.335279	0.433482
6.550000	-0.160305	0.314046	0.474351	-0.088762	-0.366419	0.455181
6.555000	-0.183339	0.321294	0.504633	-0.079648	-0.397201	0.476849
6.560000	-0.207428	0.329675	0.537103	-0.070580	-0.429855	0.500435
6.565000	-0.233549	0.340289	0.573839	-0.061626	-0.466145	0.527772
6.570000	-0.261341	0.353241	0.614582	-0.053059	-0.505714	0.558773
6.575000	-0.289597	0.367832	0.657429	-0.045169	-0.546766	0.591934
6.580000	-0.317011	0.382785	0.699796	-0.037975	-0.587053	0.625028
6.585000	-0.342021	0.396378	0.738399	-0.031383	-0.623781	0.655163
6.590000	-0.362904	0.407325	0.770230	-0.025646	-0.654215	0.679861
6.595000	-0.379222	0.415485	0.794707	-0.020937	-0.677768	0.698704
6.600000	-0.391970	0.420228	0.812198	-0.016315	-0.695226	0.711541
6.605000	-0.402666	0.420708	0.823374	-0.010416	-0.707854	0.718271
6.610000	-0.412560	0.417979	0.830540	-0.003129	-0.717704	0.720832
6.615000	-0.421601	0.413892	0.835492	0.004451	-0.725783	0.721332
6.620000	-0.428212	0.408556	0.836767	0.011348	-0.730335	0.718987
6.625000	-0.430993	0.401060	0.832053	0.017282	-0.729219	0.711937
6.630000	-0.430148	0.391291	0.821440	0.022434	-0.722605	0.700171
6.635000	-0.426493	0.379569	0.806062	0.027092	-0.711615	0.684524
6.640000	-0.420609	0.366660	0.787269	0.031147	-0.697368	0.666221
6.645000	-0.412959	0.353674	0.766633	0.034228	-0.681037	0.646810
6.650000	-0.402858	0.341536	0.744395	0.035404	-0.662367	0.626962
6.655000	-0.389460	0.331281	0.720742	0.033590	-0.640975	0.607386
6.660000	-0.372386	0.323107	0.695493	0.028451	-0.616540	0.588089
6.665000	-0.351684	0.315034	0.666718	0.021160	-0.587974	0.566814
6.670000	-0.327948	0.304442	0.632390	0.013571	-0.554451	0.540880
6.675000	-0.302015	0.291225	0.593240	0.006230	-0.516876	0.510646
6.680000	-0.274693	0.277981	0.552674	-0.001898	-0.477681	0.479579
6.685000	-0.244988	0.265334	0.510322	-0.011747	-0.436078	0.447825
6.690000	-0.204982	0.247371	0.452353	-0.024473	-0.379512	0.403986
6.695000	-0.146108	0.218581	0.364690	-0.041842	-0.294909	0.336752
6.700000	-0.067928	0.179821	0.247749	-0.064602	-0.182256	0.246858
6.705000	0.025407	0.134960	0.109553	-0.092588	-0.048581	0.141169
6.710000	0.129078	0.085796	-0.043282	-0.124058	0.099512	0.024546
6.715000	0.238443	0.029796	-0.208647	-0.154868	0.258127	-0.103259
6.720000	0.349242	-0.036993	-0.386235	-0.180277	0.424628	-0.244350
6.725000	0.457999	-0.117235	-0.575234	-0.196740	0.596537	-0.399797
6.730000	0.562503	-0.210923	-0.773426	-0.202985	0.771299	-0.568314
6.735000	0.662297	-0.314642	-0.976940	-0.200719	0.946414	-0.745695
6.740000	0.757471	-0.422546	-1.180017	-0.193369	1.118608	-0.925239
6.745000	0.847771	-0.527844	-1.375615	-0.184709	1.283672	-1.098962
6.750000	0.931929	-0.624400	-1.556329	-0.177552	1.436595	-1.259043
6.755000	1.007056	-0.707166	-1.714222	-0.173142	1.571130	-1.397988
6.760000	1.069462	-0.770171	-1.839633	-0.172796	1.679566	-1.506770
6.765000	1.116572	-0.806988	-1.923559	-0.178739	1.755220	-1.576481
6.770000	1.148074	-0.814171	-1.962245	-0.192779	1.795742	-1.602963
6.775000	1.163240	-0.792793	-1.956033	-0.213877	1.800912	-1.587035
6.780000	1.158044	-0.748483	-1.906528	-0.236460	1.769330	-1.532871
6.785000	1.126646	-0.689071	-1.815717	-0.252634	1.698773	-1.446140
6.790000	1.065156	-0.621431	-1.686586	-0.256185	1.588718	-1.332533
6.795000	0.974235	-0.548130	-1.522365	-0.246012	1.441412	-1.195400
6.800000	0.860844	-0.469456	-1.330300	-0.225968	1.265057	-1.039089
6.805000	0.736383	-0.386592	-1.122975	-0.201952	1.073501	-0.871548
6.810000	0.610610	-0.299907	-0.910518	-0.179384	0.878223	-0.698839
6.815000	0.489896	-0.208028	-0.697924	-0.162737	0.685788	-0.523051
6.820000	0.378495	-0.111869	-0.490364	-0.153936	0.501636	-0.347699
6.825000	0.279080	-0.016014	-0.295095	-0.151881	0.331500	-0.179619
6.830000	0.193053	0.072484	-0.120570	-0.153308	0.181070	-0.027762
6.835000	0.120013	0.146189	0.026175	-0.153692	0.054177	0.099514
6.840000	0.059403	0.201179	0.141776	-0.150447	-0.047558	0.198005
6.845000	0.010052	0.238835	0.228783	-0.143695	-0.126284	0.269979
6.850000	-0.030936	0.263568	0.294504	-0.134310	-0.187893	0.322203
6.855000	-0.066345	0.279537	0.345882	-0.123086	-0.237999	0.361086
6.860000	-0.097604	0.290137	0.387741	-0.111159	-0.280214	0.391373
6.865000	-0.125420	0.298119	0.423539	-0.099708	-0.316941	0.416649
6.870000	-0.150473	0.304717	0.455190	-0.089053	-0.349679	0.438732
6.875000	-0.173670	0.310964	0.484634	-0.079267	-0.380072	0.459338
6.880000	-0.196746	0.318446	0.515192	-0.070263	-0.411038	0.481301
6.885000	-0.221037	0.327613	0.548649	-0.061531	-0.444378	0.505910
6.890000	-0.247261	0.338371	0.585632	-0.052602	-0.480871	0.533473
6.895000	-0.275251	0.351569	0.626820	-0.044063	-0.520810	0.564873
6.900000	-0.303844	0.366743	0.670586	-0.036315	-0.562587	0.598902
6.905000	-0.331389	0.381425	0.712814	-0.028889	-0.602870	0.631759
6.910000	-0.356088	0.394243	0.750332	-0.022029	-0.638792	0.660820
6.915000	-0.376354	0.405003	0.781357	-0.016541	-0.668404	0.684945
6.920000	-0.391936	0.412911	0.804847	-0.012110	-0.690962	0.703072
6.925000	-0.404118	0.417195	0.821313	-0.007550	-0.707503	0.715052
6.930000	-0.414654	0.417741	0.832395	-0.001783	-0.719984	0.721766
6.935000	-0.424506	0.414925	0.839432	0.005532	-0.729735	0.724203
6.940000	-0.433294	0.410017	0.843311	0.013439	-0.737048	0.723609
6.945000	-0.439549	0.404232	0.843781	0.020391	-0.740930	0.720540
6.950000	-0.442063	0.396918	0.838981	0.026065	-0.739611	0.713546
6.955000	-0.440929	0.386744	0.827673	0.031284	-0.732427	0.701143
6.960000	-0.436940	0.374487	0.811427	0.036057	-0.720745	0.684687
6.965000	-0.430808	0.361730	0.792538	0.039882	-0.706298	0.666416
6.970000	-0.422805	0.348802	0.771607	0.042725	-0.689593	0.646868
6.975000	-0.412309	0.336790	0.749098	0.043601	-0.670538	0.626937
6.980000	-0.398655	0.327368	0.726023	0.041158	-0.649333	0.608175
6.985000	-0.381114	0.319535	0.700649	0.035553	-0.624556	0.589003
6.990000	-0.359744	0.310700	0.670444	0.028316	-0.594779	0.566463
6.995000	-0.335500	0.299756	0.635255	0.020637	-0.560466	0.539829
7.000000	-0.309221	0.286873	0.596094	0.012902	-0.522683	0.509781
7.005000	-0.281526	0.273474	0.555000	0.004649	-0.482968	0.478319
7.010000	-0.250903	0.260170	0.511072	-0.005350	-0.439926	0.445276
7.015000	-0.208801	0.242069	0.450871	-0.019207	-0.380862	0.400069
7.020000	-0.147091	0.213120	0.360210	-0.038122	-0.292890	0.331012
7.025000	-0.065725	0.173615	0.239340	-0.062291	-0.176129	0.238420
7.030000	0.030760	0.127798	0.097038	-0.091544	-0.038265	0.129809
7.035000	0.137174	0.076321	-0.060853	-0.123261	0.114331	0.008931
7.040000	0.248507	0.016095	-0.232412	-0.152768	0.277658	-0.124890
7.045000	0.360261	-0.054915	-0.415177	-0.176291	0.447699	-0.271408
7.050000	0.469092	-0.138587	-0.607679	-0.190817	0.621673	-0.430856
7.055000	0.573252	-0.235388	-0.808640	-0.195065	0.797835	-0.602770
7.060000	0.672401	-0.340910	-1.013310	-0.191387	0.973246	-0.781859
7.065000	0.766337	-0.448353	-1.214691	-0.183588	1.143747	-0.960159
7.070000	0.854970	-0.552007	-1.406977	-0.174915	1.305935	-1.131020
7.075000	0.937153	-0.646318	-1.583471	-0.167913	1.455282	-1.287368
7.080000	1.009854	-0.724863	-1.734716	-0.164540	1.584578	-1.420038
7.085000	1.069564	-0.781898	-1.851463	-0.166084	1.686455	-1.520371
7.090000	1.113955	-0.812289	-1.926244	-0.174167	1.755259	-1.581092
7.095000	1.142480	-0.812801	-1.955281	-0.190340	1.788492	-1.598152
7.100000	1.154019	-0.786071	-1.940089	-0.212435	1.786383	-1.573948
7.105000	1.144283	-0.739395	-1.883678	-0.233762	1.748193	-1.514431
7.110000	1.107146	-0.679370	-1.786516	-0.246976	1.670656	-1.423680
7.115000	1.039223	-0.610881	-1.650104	-0.247303	1.552682	-1.305379
7.120000	0.942545	-0.536681	-1.479227	-0.234326	1.398210	-1.163885
7.125000	0.825472	-0.457616	-1.283089	-0.212382	1.217378	-1.004996
7.130000	0.699576	-0.373935	-1.073511	-0.188009	1.023692	-0.835683
7.135000	0.574065	-0.285934	-0.859998	-0.166352	0.827956	-0.661604
7.140000	0.454918	-0.192946	-0.647864	-0.151249	0.636691	-0.485442
7.145000	0.345821	-0.095919	-0.441739	-0.144281	0.454698	-0.310417
7.150000	0.249083	-0.000552	-0.249634	-0.143489	0.287934	-0.144445
7.155000	0.165802	0.084833	-0.080969	-0.144704	0.142473	0.002231
7.160000	0.095396	0.154237	0.058841	-0.144126	0.021105	0.123021
7.165000	0.037268	0.205187	0.167919	-0.139982	-0.075431	0.215413
7.170000	-0.010069	0.238964	0.249033	-0.132153	-0.149592	0.281745
7.175000	-0.049650	0.260421	0.310071	-0.121689	-0.207685	0.329373
7.180000	-0.084138	0.275206	0.359344	-0.110313	-0.256045	0.366357
7.185000	-0.114646	0.286132	0.400778	-0.099007	-0.297580	0.396587
7.190000	-0.141693	0.294439	0.436131	-0.088188	-0.333607	0.421795
7.195000	-0.166188	0.301623	0.467811	-0.078194	-0.366039	0.444233
7.200000	-0.189566	0.309014	0.498580	-0.068963	-0.397301	0.466264
7.205000	-0.213358	0.317284	0.530643	-0.060002	-0.429549	0.489551
7.210000	-0.238536	0.327070	0.565606	-0.051115	-0.464271	0.515387
7.215000	-0.265427	0.338891	0.604318	-0.042414	-0.502147	0.544562
7.220000	-0.293480	0.352570	0.646050	-0.034116	-0.542438	0.576554
7.225000	-0.321569	0.367188	0.688756	-0.026338	-0.583311	0.609649
7.230000	-0.348422	0.381573	0.729996	-0.019139	-0.622625	0.641764
7.235000	-0.372214	0.394411	0.766625	-0.012815	-0.657508	0.670324
7.240000	-0.391424	0.404534	0.795957	-0.007569	-0.685534	0.693104
7.245000	-0.406264	0.411672	0.817937	-0.003122	-0.706793	0.709915
7.250000	-0.418134	0.415074	0.833208	0.001767	-0.722462	0.720695
7.255000	-0.428514	0.414199	0.842713	0.008265	-0.733943	0.725678
7.260000	-0.438199	0.410445	0.848644	0.016024	-0.742959	0.726936
7.265000	-0.446582	0.405403	0.851985	0.023775	-0.749727	0.725953
7.270000	-0.451986	0.398828	0.850813	0.030691	-0.752171	0.721480
7.275000	-0.453547	0.390247	0.843794	0.036546	-0.749020	0.712474
7.280000	-0.451865	0.379744	0.831609	0.041639	-0.741013	0.699375
7.285000	-0.447582	0.367627	0.815209	0.046162	-0.729073	0.682910
7.290000	-0.441123	0.354435	0.795557	0.050049	-0.713997	0.663948
7.295000	-0.432665	0.341412	0.774077	0.052685	-0.696713	0.644028
7.300000	-0.421503	0.330132	0.751636	0.052753	-0.677312	0.624559
7.305000	-0.406942	0.321063	0.728004	0.049582	-0.655261	0.605679
7.310000	-0.388564	0.313192	0.701756	0.043516	-0.629496	0.585980
7.315000	-0.366726	0.304621	0.671347	0.035856	-0.599332	0.563475
7.320000	-0.342097	0.293414	0.635511	0.028107	-0.564422	0.536315
7.325000	-0.315570	0.280026	0.595596	0.020521	-0.526062	0.505541
7.330000	-0.287770	0.267254	0.555024	0.011845	-0.486587	0.474742
7.335000	-0.256404	0.255271	0.511675	0.000654	-0.443450	0.442796
7.340000	-0.212635	0.238474	0.451109	-0.014918	-0.383213	0.398131
7.345000	-0.149149	0.210720	0.359868	-0.035548	-0.293881	0.329429
7.350000	-0.065967	0.171789	0.237757	-0.061097	-0.175355	0.236451
7.355000	0.032849	0.124128	0.091280	-0.090631	-0.033735	0.124366
7.360000	0.141929	0.068535	-0.073394	-0.121512	0.124317	-0.002806
7.365000	0.255603	0.003932	-0.251671	-0.149842	0.292874	-0.143032
7.370000	0.368911	-0.071566	-0.440477	-0.171672	0.467300	-0.295628
7.375000	0.478246	-0.159449	-0.637696	-0.184058	0.644289	-0.460232
7.380000	0.581952	-0.258644	-0.840596	-0.186662	0.821308	-0.634646
7.385000	0.680187	-0.365061	-1.045247	-0.181938	0.996179	-0.814241
7.390000	0.773233	-0.472809	-1.246042	-0.173450	1.165829	-0.992379
7.395000	0.860752	-0.575354	-1.436106	-0.164775	1.326091	-1.161317
7.400000	0.941104	-0.666716	-1.607820	-0.158418	1.471621	-1.313203
7.405000	1.011261	-0.741668	-1.752930	-0.155650	1.595906	-1.440256
7.410000	1.067736	-0.794189	-1.861925	-0.157932	1.691439	-1.533507
7.415000	1.108702	-0.818516	-1.927218	-0.167539	1.752788	-1.585249
7.420000	1.134013	-0.813141	-1.947154	-0.185255	1.778912	-1.593656
7.425000	1.141812	-0.781852	-1.923663	-0.207823	1.769852	-1.562029
7.430000	1.126876	-0.731189	-1.858065	-0.228450	1.723356	-1.494906
7.435000	1.083418	-0.668445	-1.751863	-0.239585	1.636950	-1.397365
7.440000	1.009132	-0.598637	-1.607769	-0.236999	1.510868	-1.273869
7.445000	0.907264	-0.523124	-1.430388	-0.221783	1.349643	-1.127860
7.450000	0.787297	-0.442699	-1.229996	-0.198954	1.164684	-0.965730
7.455000	0.660889	-0.358662	-1.019551	-0.174491	0.970202	-0.795712
7.460000	0.536327	-0.270177	-0.806504	-0.153662	0.775284	-0.621622
7.465000	0.418901	-0.175798	-0.594699	-0.140355	0.585202	-0.444846
7.470000	0.312137	-0.078430	-0.390567	-0.134931	0.405706	-0.270776
7.475000	0.218248	0.015300	-0.202948	-0.134839	0.243177	-0.108339
7.480000	0.137743	0.098056	-0.039686	-0.136139	0.102439	0.033700
7.485000	0.069997	0.163846	0.093850	-0.135009	-0.013772	0.148781
7.490000	0.014494	0.210677	0.196182	-0.130002	-0.104898	0.234900
7.495000	-0.030823	0.241706	0.272529	-0.121753	-0.175140	0.296893
7.500000	-0.069142	0.262031	0.331173	-0.111364	-0.231122	0.342486
7.505000	-0.102632	0.275458	0.378091	-0.099781	-0.277545	0.377327
7.510000	-0.132248	0.284833	0.417081	-0.088095	-0.317156	0.405250
7.515000	-0.158779	0.292582	0.451361	-0.077251	-0.352265	0.429516
7.520000	-0.183017	0.299354	0.482371	-0.067168	-0.384161	0.451329
7.525000	-0.206213	0.306044	0.512258	-0.057638	-0.414809	0.472447
7.530000	-0.229933	0.314240	0.544173	-0.048674	-0.446930	0.495604
7.535000	-0.255123	0.324379	0.579503	-0.039985	-0.481871	0.521856
7.540000	-0.282061	0.336440	0.618501	-0.031396	-0.519939	0.551335
7.545000	-0.310265	0.350747	0.661013	-0.023373	-0.560767	0.584140
7.550000	-0.338415	0.365795	0.704210	-0.015808	-0.601959	0.617767
7.555000	-0.365003	0.379498	0.744501	-0.008369	-0.640572	0.648941
7.560000	-0.388212	0.391343	0.779556	-0.001807	-0.674211	0.676018
7.565000	-0.406795	0.401086	0.807882	0.003296	-0.701294	0.697998
7.570000	-0.421065	0.407572	0.828637	0.007791	-0.721516	0.713725
7.575000	-0.432545	0.409945	0.842490	0.013048	-0.736142	0.723094
7.580000	-0.442821	0.408922	0.851744	0.019572	-0.747417	0.727845
7.585000	-0.452291	0.405521	0.857811	0.027003	-0.756387	0.729385
7.590000	-0.459994	0.400518	0.860513	0.034339	-0.762395	0.728056
7.595000	-0.464563	0.394227	0.858790	0.040609	-0.764038	0.723430
7.600000	-0.465505	0.385981	0.851486	0.045913	-0.760365	0.714452
7.605000	-0.463252	0.374798	0.838050	0.051069	-0.751307	0.700238
7.610000	-0.458475	0.361814	0.820289	0.055807	-0.738294	0.682487
7.615000	-0.451845	0.348557	0.800402	0.059633	-0.722985	0.663351
7.620000	-0.443142	0.335431	0.778572	0.062187	-0.705356	0.643170
7.625000	-0.431407	0.323753	0.755160	0.062155	-0.685065	0.622910
7.630000	-0.416093	0.314889	0.730981	0.058430	-0.662263	0.603833
7.635000	-0.396805	0.307128	0.703932	0.051775	-0.635510	0.583735
7.640000	-0.374009	0.297546	0.671555	0.044146	-0.603657	0.559510
7.645000	-0.348709	0.285468	0.634177	0.036512	-0.567469	0.530957
7.650000	-0.321772	0.272250	0.594022	0.028592	-0.528734	0.500142
7.655000	-0.293372	0.259510	0.552882	0.019550	-0.488585	0.469035
7.660000	-0.259447	0.245269	0.504717	0.008186	-0.441190	0.433004
7.665000	-0.210110	0.222530	0.432640	-0.007170	-0.371092	0.378262
7.670000	-0.140748	0.188070	0.328818	-0.027321	-0.271104	0.298425
7.675000	-0.053873	0.145179	0.199052	-0.052715	-0.146027	0.198742
7.680000	0.045593	0.098023	0.052430	-0.082916	-0.003947	0.086864
7.685000	0.152897	0.045552	-0.107345	-0.114574	0.150251	-0.035677
7.690000	0.263666	-0.016333	-0.279999	-0.142798	0.313885	-0.171087
7.695000	0.373929	-0.090077	-0.464006	-0.163882	0.483782	-0.319900
7.700000	0.480839	-0.177192	-0.658031	-0.175310	0.657527	-0.482216
7.705000	0.583207	-0.276890	-0.860097	-0.176852	0.833292	-0.656440
7.710000	0.680705	-0.383680	-1.064385	-0.171487	1.007527	-0.836040
7.715000	0.773203	-0.490752	-1.263955	-0.163073	1.176153	-1.013080
7.720000	0.860475	-0.592444	-1.452919	-0.154747	1.335638	-1.180891
7.725000	0.940317	-0.682647	-1.622964	-0.148766	1.479910	-1.331144
7.730000	1.009073	-0.754874	-1.763947	-0.146761	1.601003	-1.454242
7.735000	1.063397	-0.803634	-1.867032	-0.149974	1.691883	-1.541909
7.740000	1.102011	-0.824474	-1.926485	-0.160236	1.748502	-1.588266
7.745000	1.124710	-0.815600	-1.940310	-0.178465	1.769589	-1.591125
7.750000	1.129350	-0.780958	-1.910309	-0.201144	1.754947	-1.553803
7.755000	1.110671	-0.728198	-1.838868	-0.220821	1.702916	-1.482096
7.760000	1.063200	-0.664217	-1.727416	-0.230353	1.611162	-1.380809
7.765000	0.985185	-0.593208	-1.578393	-0.226308	1.480082	-1.253774
7.770000	0.880706	-0.517041	-1.397747	-0.209962	1.315464	-1.105503
7.775000	0.759685	-0.436211	-1.195896	-0.186758	1.129054	-0.942297
7.780000	0.633311	-0.351166	-0.984477	-0.162897	0.934030	-0.771134
7.785000	0.509533	-0.261737	-0.771270	-0.143065	0.739471	-0.596406
7.790000	0.393545	-0.167449	-0.560994	-0.130537	0.551103	-0.420567
7.795000	0.288414	-0.070585	-0.358999	-0.125764	0.373784	-0.248020
7.800000	0.196140	0.022286	-0.173854	-0.126109	0.213616	-0.087507
7.805000	0.117285	0.102795	-0.014490	-0.127063	0.076080	0.050983
7.810000	0.051103	0.165822	0.114719	-0.125241	-0.036729	0.161971
7.815000	-0.003108	0.210876	0.213984	-0.119955	-0.125338	0.245293
7.820000	-0.047460	0.240798	0.288258	-0.111624	-0.193827	0.305451
7.825000	-0.085081	0.260505	0.345586	-0.101281	-0.248646	0.349927
7.830000	-0.118100	0.274258	0.392358	-0.090158	-0.294713	0.384871
7.835000	-0.147259	0.283824	0.431084	-0.078846	-0.333906	0.412752
7.840000	-0.173309	0.290772	0.464081	-0.067817	-0.367997	0.435814
7.845000	-0.197258	0.297030	0.494287	-0.057603	-0.399264	0.456867
7.850000	-0.220574	0.304144	0.524719	-0.048249	-0.430295	0.478544
7.855000	-0.244716	0.312355	0.557072	-0.039051	-0.462912	0.501964
7.860000	-0.270644	0.321955	0.592599	-0.029624	-0.498393	0.528017
7.865000	-0.298293	0.333834	0.632127	-0.020520	-0.537178	0.557698
7.870000	-0.326652	0.347756	0.674408	-0.012184	-0.577962	0.590146
7.875000	-0.354401	0.362343	0.716744	-0.004585	-0.618426	0.623011
7.880000	-0.380309	0.376384	0.756693	0.002266	-0.656448	0.654182
7.885000	-0.402621	0.388445	0.791066	0.008184	-0.689175	0.680991
7.890000	-0.420240	0.397384	0.817624	0.013196	-0.714681	0.701485
7.895000	-0.433848	0.403243	0.837091	0.017670	-0.733777	0.716107
7.900000	-0.444847	0.405492	0.850339	0.022722	-0.747775	0.725054
7.905000	-0.454598	0.403954	0.858552	0.029240	-0.758147	0.728907
7.910000	-0.463686	0.400207	0.863893	0.036650	-0.766478	0.729828
7.915000	-0.471253	0.395611	0.866864	0.043672	-0.772562	0.728890
7.920000	-0.475631	0.389286	0.864917	0.049851	-0.773965	0.724114
7.925000	-0.476283	0.380261	0.856544	0.055439	-0.769508	0.714069
7.930000	-0.473878	0.369083	0.842961	0.060503	-0.760277	0.699773
7.935000	-0.468944	0.356606	0.825550	0.064858	-0.747376	0.682518
7.940000	-0.461880	0.343459	0.805340	0.068371	-0.731630	0.663259
7.945000	-0.452635	0.331040	0.783674	0.070203	-0.713783	0.643580
7.950000	-0.440533	0.320811	0.761343	0.069121	-0.693903	0.624782
7.955000	-0.424890	0.312361	0.737251	0.064968	-0.670962	0.605994
7.960000	-0.405331	0.303890	0.709221	0.058566	-0.643486	0.584920
7.965000	-0.382382	0.293933	0.676315	0.051066	-0.611239	0.560173
7.970000	-0.356912	0.281579	0.638492	0.043493	-0.574696	0.531203
7.975000	-0.329847	0.268034	0.597881	0.035688	-0.535624	0.499936
7.980000	-0.301381	0.255582	0.556963	0.026442	-0.495565	0.469123
7.985000	-0.266443	0.241711	0.508154	0.014279	-0.447213	0.432935
7.990000	-0.214966	0.219164	0.434129	-0.002424	-0.374755	0.377179
7.995000	-0.142901	0.185028	0.327930	-0.024322	-0.271834	0.296156
8.000000	-0.053020	0.141852	0.194872	-0.051288	-0.143120	0.194408
8.005000	0.049651	0.092122	0.042471	-0.081852	0.004145	0.077707
8.010000	0.159642	0.035309	-0.124333	-0.112555	0.163953	-0.051398
8.015000	0.272003	-0.030896	-0.302898	-0.139203	0.331919	-0.192716
8.020000	0.382990	-0.109173	-0.492163	-0.158088	0.505269	-0.347181
8.025000	0.489949	-0.200720	-0.690669	-0.166986	0.681630	-0.514644
8.030000	0.591727	-0.302770	-0.894497	-0.166829	0.858071	-0.691242
8.035000	0.688267	-0.410079	-1.098346	-0.160612	1.031501	-0.870889
8.040000	0.779714	-0.516867	-1.296581	-0.151754	1.198749	-1.046994
8.045000	0.865394	-0.616523	-1.481918	-0.143686	1.355221	-1.211535
8.050000	0.942870	-0.702980	-1.645850	-0.138501	1.494597	-1.356097
8.055000	1.008745	-0.770894	-1.779639	-0.137323	1.609873	-1.472550
8.060000	1.059888	-0.814192	-1.874080	-0.141852	1.693926	-1.552074
8.065000	1.095279	-0.828198	-1.923477	-0.154199	1.742879	-1.588680
8.070000	1.114716	-0.813326	-1.928042	-0.174008	1.756736	-1.582729
8.075000	1.115352	-0.774745	-1.890096	-0.196649	1.735196	-1.538546
8.080000	1.091353	-0.719054	-1.810408	-0.214947	1.675332	-1.460385
8.085000	1.037784	-0.653215	-1.690999	-0.222031	1.575463	-1.353432
8.090000	0.954020	-0.581683	-1.535704	-0.214969	1.437442	-1.222473
8.095000	0.845329	-0.504997	-1.350326	-0.196491	1.267661	-1.071170
8.100000	0.722396	-0.423499	-1.145895	-0.172568	1.078658	-0.906090
8.105000	0.595953	-0.338429	-0.934382	-0.148681	0.883539	-0.734857
8.110000	0.473143	-0.248557	-0.721700	-0.129665	0.689843	-0.560178
8.115000	0.358716	-0.153064	-0.511781	-0.118733	0.502581	-0.383848
8.120000	0.255816	-0.056174	-0.311990	-0.115263	0.327823	-0.212560
8.125000	0.166323	0.034834	-0.131488	-0.116138	0.171941	-0.055803
8.130000	0.090094	0.112941	0.022847	-0.117222	0.038826	0.078397
8.135000	0.026414	0.173238	0.146824	-0.115269	-0.069518	0.184788
8.140000	-0.025392	0.214774	0.240166	-0.109340	-0.153320	0.262660
8.145000	-0.067850	0.241689	0.309539	-0.100366	-0.217886	0.318252
8.150000	-0.104149	0.259487	0.363636	-0.089685	-0.270075	0.359760
8.155000	-0.136149	0.271536	0.407685	-0.078165	-0.313983	0.392148
8.160000	-0.164652	0.280355	0.445007	-0.066801	-0.351987	0.418788
8.165000	-0.190502	0.287900	0.478402	-0.056233	-0.386192	0.442424
8.170000	-0.214394	0.294565	0.508959	-0.046287	-0.417628	0.463915
8.175000	-0.237737	0.301552	0.539288	-0.036843	-0.448615	0.485459
8.180000	-0.261969	0.310292	0.572261	-0.027899	-0.481643	0.509542
8.185000	-0.287841	0.320804	0.608645	-0.019032	-0.517586	0.536618
8.190000	-0.315269	0.333193	0.648462	-0.010348	-0.556410	0.566759
8.195000	-0.343496	0.347713	0.691209	-0.002435	-0.597387	0.599822
8.200000	-0.371216	0.362708	0.733924	0.004912	-0.638053	0.633140
8.205000	-0.396832	0.375802	0.772634	0.012142	-0.675191	0.663049
8.210000	-0.418503	0.386541	0.805045	0.018453	-0.706416	0.687962
8.215000	-0.435432	0.395106	0.830538	0.023282	-0.730908	0.707626
8.220000	-0.448425	0.400407	0.848832	0.027723	-0.748971	0.721248
8.225000	-0.459174	0.401635	0.860809	0.033220	-0.762092	0.728872
8.230000	-0.469161	0.399661	0.868821	0.040126	-0.772484	0.732358
8.235000	-0.478446	0.395539	0.873986	0.047866	-0.780826	0.732960
8.240000	-0.485597	0.389694	0.875291	0.055369	-0.785708	0.730339
8.245000	-0.489189	0.382233	0.871422	0.061751	-0.785549	0.723797
8.250000	-0.489148	0.372957	0.862105	0.067083	-0.780146	0.713063
8.255000	-0.486076	0.361477	0.847553	0.071937	-0.769971	0.698034
8.260000	-0.480494	0.348834	0.829328	0.076014	-0.756226	0.680212
8.265000	-0.472886	0.336155	0.809042	0.078942	-0.740121	0.661179
8.270000	-0.462824	0.324004	0.786828	0.080148	-0.721487	0.641338
8.275000	-0.449651	0.313910	0.763561	0.078370	-0.700448	0.622078
8.280000	-0.432905	0.306203	0.739107	0.073151	-0.676661	0.603510
8.285000	-0.412420	0.298263	0.710683	0.065909	-0.648423	0.582514
8.290000	-0.388830	0.287738	0.676568	0.058366	-0.615108	0.556742
8.295000	-0.363125	0.274991	0.638115	0.050884	-0.578066	0.527182
8.300000	-0.336100	0.262033	0.598133	0.042762	-0.539380	0.496617
8.305000	-0.307242	0.249886	0.557128	0.033114	-0.499044	0.465930
8.310000	-0.270891	0.236589	0.507480	0.019805	-0.449393	0.429588
8.315000	-0.217369	0.215334	0.432704	0.001175	-0.375320	0.374145
8.320000	-0.142803	0.181524	0.324327	-0.022356	-0.269697	0.292053
8.325000	-0.050010	0.137190	0.187200	-0.050334	-0.136953	0.187287
8.330000	0.055546	0.085123	0.029577	-0.081215	0.014993	0.066222
8.335000	0.168043	0.024291	-0.143752	-0.111044	0.180015	-0.068971
8.340000	0.282097	-0.046947	-0.329045	-0.135764	0.352843	-0.217079
8.345000	0.393441	-0.129547	-0.522988	-0.152359	0.529100	-0.376741
8.350000	0.499670	-0.224409	-0.724079	-0.158922	0.706531	-0.547609
8.355000	0.600416	-0.329257	-0.929673	-0.156554	0.883397	-0.726843
8.360000	0.695766	-0.437718	-1.133484	-0.148984	1.056117	-0.907133
8.365000	0.785835	-0.543124	-1.328960	-0.140129	1.220977	-1.080848
8.370000	0.869947	-0.640265	-1.510212	-0.132607	1.374184	-1.241578
8.375000	0.945440	-0.723570	-1.669009	-0.128097	1.509452	-1.381356
8.380000	1.008589	-0.786680	-1.795269	-0.128120	1.618808	-1.490688
8.385000	1.056642	-0.824065	-1.880708	-0.134278	1.695879	-1.561601
8.390000	1.089025	-0.832104	-1.921129	-0.148334	1.737912	-1.589579
8.395000	1.104884	-0.811226	-1.916110	-0.169544	1.744171	-1.574628
8.400000	1.100480	-0.767505	-1.867985	-0.192243	1.713843	-1.521600
8.405000	1.070235	-0.709118	-1.779353	-0.208491	1.645210	-1.436719
8.410000	1.010125	-0.642294	-1.652420	-0.212367	1.537220	-1.324853
8.415000	0.920561	-0.569506	-1.490067	-0.202682	1.391776	-1.189095
8.420000	0.808107	-0.491686	-1.299792	-0.182686	1.216995	-1.034310
8.425000	0.683867	-0.409776	-1.093642	-0.158247	1.026245	-0.867998
8.430000	0.557821	-0.323797	-0.881618	-0.135114	0.831060	-0.695946
8.435000	0.436698	-0.232579	-0.669277	-0.117848	0.638535	-0.520687
8.440000	0.324965	-0.136675	-0.461640	-0.108710	0.454147	-0.345437
8.445000	0.225133	-0.040235	-0.265368	-0.106751	0.283191	-0.176440
8.450000	0.138548	0.048988	-0.089560	-0.108273	0.131698	-0.023424
8.455000	0.064937	0.123221	0.058284	-0.108634	0.003841	0.104792
8.460000	0.003617	0.179056	0.175439	-0.105467	-0.099201	0.204668
8.465000	-0.046490	0.217517	0.264007	-0.098742	-0.179265	0.278007
8.470000	-0.087940	0.242325	0.330265	-0.089134	-0.241451	0.330584
8.475000	-0.123540	0.258276	0.381816	-0.077790	-0.291767	0.369557
8.480000	-0.154957	0.269240	0.424197	-0.065981	-0.334374	0.400356
8.485000	-0.182880	0.277359	0.460239	-0.054547	-0.371304	0.425852
8.490000	-0.208044	0.284010	0.492055	-0.043859	-0.404202	0.448061
8.495000	-0.231471	0.290817	0.522288	-0.034263	-0.435183	0.469446
8.500000	-0.254574	0.298742	0.553315	-0.025500	-0.466435	0.491935
8.505000	-0.278505	0.307872	0.586377	-0.016955	-0.499340	0.516294
8.510000	-0.304313	0.318839	0.623151	-0.008387	-0.535471	0.543858
8.515000	-0.332055	0.332155	0.664210	-0.000058	-0.575194	0.575251
8.520000	-0.360436	0.346633	0.707069	0.007970	-0.616324	0.608355
8.525000	-0.387839	0.360484	0.748323	0.015793	-0.655963	0.640170
8.530000	-0.412715	0.373237	0.785952	0.022792	-0.692050	0.669258
8.535000	-0.433379	0.384204	0.817583	0.028391	-0.722243	0.693852
8.540000	-0.449388	0.392180	0.841568	0.033029	-0.745333	0.712304
8.545000	-0.461983	0.396945	0.858928	0.037550	-0.762628	0.725078
8.550000	-0.472776	0.398216	0.870992	0.043047	-0.775824	0.732777
8.555000	-0.482671	0.395912	0.878583	0.050090	-0.785920	0.735829
8.560000	-0.491450	0.391441	0.882890	0.057740	-0.793475	0.735735
8.565000	-0.497770	0.385746	0.883516	0.064677	-0.797485	0.732808
8.570000	-0.500378	0.377880	0.878258	0.070725	-0.795956	0.725231
8.575000	-0.499496	0.367303	0.866799	0.076322	-0.788830	0.712509
8.580000	-0.495902	0.355338	0.851240	0.081155	-0.777773	0.696618
8.585000	-0.490021	0.342915	0.832937	0.084932	-0.763810	0.678878
8.590000	-0.482045	0.329974	0.812019	0.087798	-0.747127	0.659329
8.595000	-0.471507	0.317891	0.789397	0.088690	-0.727983	0.639293
8.600000	-0.457793	0.308335	0.766128	0.086290	-0.706631	0.620342
8.605000	-0.440374	0.300412	0.740785	0.080807	-0.681942	0.601135
8.610000	-0.419411	0.292019	0.711430	0.073549	-0.652891	0.579341
8.615000	-0.395685	0.281500	0.677185	0.065924	-0.619421	0.553497
8.620000	-0.369762	0.268474	0.638235	0.058479	-0.581967	0.523488
8.625000	-0.342219	0.255049	0.597269	0.050328	-0.542413	0.492086
8.630000	-0.312024	0.242339	0.554363	0.040233	-0.500208	0.459976
8.635000	-0.271032	0.224358	0.495391	0.026947	-0.442494	0.415547
8.640000	-0.210877	0.194840	0.405717	0.009259	-0.355991	0.346732
8.645000	-0.131483	0.155286	0.286769	-0.013743	-0.241478	0.255221
8.650000	-0.037128	0.110173	0.147301	-0.042172	-0.106480	0.148652
8.655000	0.067475	0.060160	-0.007314	-0.073690	0.043180	0.030510
8.660000	0.177652	0.002623	-0.175029	-0.104082	0.203620	-0.099539
8.665000	0.289001	-0.065345	-0.354347	-0.129128	0.371437	-0.242309
8.670000	0.397887	-0.146546	-0.544432	-0.145112	0.544048	-0.398936
8.675000	0.502268	-0.241286	-0.743554	-0.150678	0.719276	-0.568598
8.680000	0.601756	-0.345465	-0.947221	-0.147970	0.894302	-0.746332
8.685000	0.696306	-0.452956	-1.149261	-0.140498	1.065538	-0.925040
8.690000	0.785890	-0.557587	-1.343477	-0.131811	1.229390	-1.097579
8.695000	0.869263	-0.653033	-1.522296	-0.124840	1.380767	-1.255926
8.700000	0.943413	-0.733591	-1.677004	-0.121141	1.512898	-1.391757
8.705000	1.004778	-0.794149	-1.798927	-0.121607	1.618719	-1.497112
8.710000	1.050815	-0.828872	-1.879686	-0.128139	1.691925	-1.563786
8.715000	1.081014	-0.833670	-1.914684	-0.142804	1.729566	-1.586762
8.720000	1.094622	-0.810510	-1.905132	-0.164032	1.731908	-1.567876
8.725000	1.087623	-0.765858	-1.853481	-0.185771	1.698046	-1.512275
8.730000	1.053940	-0.706374	-1.760314	-0.200667	1.624809	-1.424142
8.735000	0.989906	-0.638293	-1.628199	-0.203004	1.511563	-1.308559
8.740000	0.896779	-0.564822	-1.461601	-0.191655	1.361611	-1.169956
8.745000	0.781957	-0.486085	-1.268043	-0.170822	1.183568	-1.012746
8.750000	0.656881	-0.402709	-1.059590	-0.146747	0.991005	-0.844258
8.755000	0.531176	-0.315782	-0.846958	-0.124358	0.795666	-0.671308
8.760000	0.410955	-0.223963	-0.634919	-0.107960	0.603835	-0.495875
8.765000	0.300081	-0.127359	-0.427441	-0.099721	0.420035	-0.320314
8.770000	0.201240	-0.031429	-0.232668	-0.098040	0.250517	-0.152476
8.775000	0.115971	0.055691	-0.060280	-0.099109	0.101758	-0.002649
8.780000	0.043868	0.127564	0.083696	-0.098976	-0.022995	0.121971
8.785000	-0.015651	0.180823	0.196474	-0.095362	-0.122470	0.217832
8.790000	-0.063966	0.216679	0.280645	-0.088169	-0.198961	0.287130
8.795000	-0.104131	0.240240	0.344371	-0.078582	-0.258942	0.337525
8.800000	-0.138960	0.256297	0.395257	-0.067745	-0.308430	0.376174
8.805000	-0.169767	0.267193	0.436959	-0.056249	-0.350293	0.406542
8.810000	-0.197229	0.275278	0.472507	-0.045061	-0.386672	0.431734
8.815000	-0.222090	0.282410	0.504499	-0.034826	-0.419496	0.454322
8.820000	-0.245343	0.289095	0.534437	-0.025260	-0.450206	0.475466
8.825000	-0.268669	0.296277	0.564946	-0.015940	-0.481288	0.497228
8.830000	-0.293643	0.305260	0.598903	-0.006707	-0.515312	0.522019
8.835000	-0.320627	0.316272	0.636899	0.002515	-0.552828	0.550313
8.840000	-0.348890	0.329377	0.678267	0.011266	-0.593029	0.581763
8.845000	-0.377216	0.344143	0.721359	0.019095	-0.634262	0.615167
8.850000	-0.404219	0.358645	0.762864	0.026312	-0.673815	0.647503
8.855000	-0.428243	0.371359	0.799602	0.032842	-0.708896	0.676055
8.860000	-0.447802	0.382033	0.829834	0.037972	-0.737643	0.699671
8.865000	-0.462947	0.390199	0.853146	0.042001	-0.759846	0.717845
8.870000	-0.474948	0.394362	0.869310	0.046526	-0.776108	0.729581
8.875000	-0.485317	0.394070	0.879387	0.052682	-0.787912	0.735231
8.880000	-0.495084	0.390806	0.885890	0.060205	-0.797306	0.737101
8.885000	-0.503787	0.385948	0.889735	0.068034	-0.804550	0.736516
8.890000	-0.509773	0.379611	0.889384	0.075149	-0.807803	0.732655
8.895000	-0.512005	0.371613	0.883619	0.081055	-0.805764	0.724708
8.900000	-0.510762	0.361613	0.872375	0.086111	-0.798554	0.712443
8.905000	-0.506586	0.349669	0.856256	0.090596	-0.786837	0.696241
8.910000	-0.500087	0.337005	0.837092	0.094155	-0.772020	0.677865
8.915000	-0.491745	0.324652	0.816397	0.096471	-0.755256	0.658785
8.920000	-0.480848	0.313139	0.793987	0.096827	-0.736026	0.639199
8.925000	-0.466637	0.303435	0.770072	0.094225	-0.714014	0.619789
8.930000	-0.448644	0.295380	0.744024	0.088487	-0.688586	0.600100
8.935000	-0.427041	0.286650	0.713691	0.081055	-0.658602	0.577547
8.940000	-0.402658	0.275262	0.677920	0.073552	-0.623871	0.550319
8.945000	-0.376654	0.262059	0.638713	0.066161	-0.586222	0.520060
8.950000	-0.349601	0.249388	0.598989	0.057858	-0.547669	0.489810
8.955000	-0.319199	0.236963	0.556162	0.047479	-0.505390	0.457911
