Time	Lead I	Lead II	Lead III	aVR	aVL	aVF
0.000000	-0.001238	-0.000463	0.000775	0.000982	-0.001162	0.000181
0.005000	-0.026057	-0.010889	0.015169	0.021331	-0.023802	0.002471
0.010000	-0.113831	-0.048914	0.064917	0.093961	-0.103200	0.009239
0.015000	-0.262109	-0.114085	0.148024	0.217196	-0.236791	0.019595
0.020000	-0.431760	-0.189442	0.242318	0.358651	-0.389179	0.030528
0.025000	-0.581437	-0.257098	0.324339	0.484128	-0.522950	0.038822
0.030000	-0.687029	-0.306217	0.380812	0.573450	-0.616518	0.043067
0.035000	-0.744714	-0.333937	0.410777	0.622759	-0.667123	0.044364
0.040000	-0.763455	-0.344022	0.419433	0.639401	-0.682940	0.043539
0.045000	-0.756409	-0.343043	0.413366	0.634769	-0.675369	0.040601
0.050000	-0.735807	-0.336286	0.399521	0.618973	-0.655482	0.036509
0.055000	-0.710541	-0.327474	0.383067	0.599298	-0.631395	0.032097
0.060000	-0.686174	-0.319568	0.366606	0.580665	-0.607822	0.027157
0.065000	-0.665659	-0.314014	0.351645	0.565614	-0.587341	0.021727
0.070000	-0.650098	-0.310764	0.339334	0.554754	-0.571249	0.016495
0.075000	-0.639857	-0.309830	0.330027	0.548302	-0.559963	0.011661
0.080000	-0.634424	-0.311246	0.323178	0.545983	-0.552872	0.006889
0.085000	-0.632797	-0.313898	0.318899	0.546574	-0.549462	0.002888
0.090000	-0.633263	-0.316906	0.316358	0.548580	-0.548264	-0.000316
0.095000	-0.633081	-0.319687	0.313394	0.550080	-0.546447	-0.003634
0.100000	-0.629362	-0.321602	0.307760	0.549039	-0.541048	-0.007992
0.105000	-0.620469	-0.322337	0.298133	0.544329	-0.530355	-0.013974
0.110000	-0.606728	-0.322288	0.284440	0.536367	-0.514516	-0.021851
0.115000	-0.589784	-0.321603	0.268182	0.526189	-0.495347	-0.030843
0.120000	-0.571501	-0.320110	0.251391	0.514771	-0.475097	-0.039674
0.125000	-0.552671	-0.317877	0.234794	0.502611	-0.454643	-0.047968
0.130000	-0.533662	-0.314598	0.219063	0.489743	-0.434586	-0.055157
0.135000	-0.515817	-0.310269	0.205548	0.476940	-0.416480	-0.060461
0.140000	-0.501585	-0.305986	0.195600	0.466251	-0.402520	-0.063731
0.145000	-0.494219	-0.303189	0.191030	0.460384	-0.395628	-0.064755
0.150000	-0.496372	-0.301687	0.194685	0.460760	-0.398982	-0.061778
0.155000	-0.507810	-0.300931	0.206879	0.466927	-0.412626	-0.054301
0.160000	-0.524264	-0.301158	0.223106	0.476557	-0.431494	-0.045063
0.165000	-0.538013	-0.301517	0.236496	0.484703	-0.447163	-0.037540
0.170000	-0.541619	-0.299724	0.241895	0.485749	-0.452361	-0.033388
0.175000	-0.531393	-0.294210	0.237183	0.476662	-0.443737	-0.032924
0.180000	-0.508343	-0.285369	0.222973	0.458250	-0.422225	-0.036024
0.185000	-0.476485	-0.274580	0.201906	0.433627	-0.391669	-0.041958
0.190000	-0.439148	-0.262910	0.176238	0.405333	-0.355293	-0.050040
0.195000	-0.397653	-0.250704	0.146949	0.374329	-0.314426	-0.059903
0.200000	-0.352601	-0.238157	0.114444	0.341074	-0.269649	-0.071426
0.205000	-0.305885	-0.225569	0.080316	0.306835	-0.222973	-0.083862
0.210000	-0.261143	-0.213962	0.047181	0.274302	-0.178011	-0.096291
0.215000	-0.221837	-0.204138	0.017699	0.245937	-0.138296	-0.107641
0.220000	-0.189880	-0.196205	-0.006325	0.222906	-0.105976	-0.116931
0.225000	-0.165916	-0.190420	-0.024503	0.205730	-0.081645	-0.124086
0.230000	-0.150127	-0.186875	-0.036749	0.194568	-0.065459	-0.129109
0.235000	-0.141990	-0.184790	-0.042801	0.188667	-0.057267	-0.131400
0.240000	-0.140253	-0.184280	-0.044027	0.187369	-0.055556	-0.131813
0.245000	-0.144132	-0.185900	-0.041768	0.190544	-0.059100	-0.131444
0.250000	-0.154288	-0.189063	-0.034775	0.198234	-0.069001	-0.129233
0.255000	-0.172172	-0.193528	-0.021355	0.211137	-0.087074	-0.124063
0.260000	-0.198781	-0.199521	-0.000740	0.229960	-0.114338	-0.115621
0.265000	-0.233491	-0.207130	0.026361	0.254393	-0.150026	-0.104367
0.270000	-0.273623	-0.216057	0.057566	0.282717	-0.191212	-0.091505
0.275000	-0.315452	-0.225798	0.089654	0.312491	-0.233888	-0.078602
0.280000	-0.356873	-0.235915	0.120957	0.342246	-0.275875	-0.066371
0.285000	-0.397519	-0.245891	0.151629	0.371473	-0.317051	-0.054422
0.290000	-0.437959	-0.255898	0.182061	0.400598	-0.357969	-0.042630
0.295000	-0.479837	-0.266041	0.213796	0.430632	-0.400469	-0.030163
0.300000	-0.524652	-0.275743	0.248909	0.462108	-0.446615	-0.015493
0.305000	-0.572314	-0.284959	0.287355	0.494947	-0.496330	0.001383
0.310000	-0.621022	-0.293659	0.327362	0.528091	-0.547549	0.019458
0.315000	-0.667048	-0.301457	0.365591	0.559166	-0.596194	0.037028
0.320000	-0.706612	-0.308126	0.398487	0.585859	-0.638029	0.052170
0.325000	-0.736924	-0.313687	0.423237	0.606570	-0.669819	0.063249
0.330000	-0.756331	-0.318114	0.438218	0.620331	-0.689673	0.069342
0.335000	-0.764734	-0.320376	0.444357	0.626488	-0.698069	0.071580
0.340000	-0.761674	-0.320008	0.441666	0.624509	-0.694749	0.070239
0.345000	-0.745969	-0.317455	0.428513	0.613968	-0.678087	0.064119
0.350000	-0.717813	-0.312421	0.405392	0.594806	-0.648483	0.053677
0.355000	-0.680392	-0.304663	0.375730	0.568722	-0.609752	0.041030
0.360000	-0.640666	-0.295659	0.345008	0.540587	-0.569079	0.028492
0.365000	-0.607401	-0.287665	0.319736	0.516766	-0.535283	0.018516
0.370000	-0.586832	-0.281590	0.305242	0.501383	-0.515039	0.013655
0.375000	-0.579840	-0.277221	0.302619	0.494825	-0.509488	0.014663
0.380000	-0.582712	-0.273969	0.308742	0.494605	-0.514681	0.020076
0.385000	-0.589657	-0.270820	0.318837	0.496797	-0.524520	0.027723
0.390000	-0.595255	-0.267396	0.327859	0.498052	-0.532960	0.034908
0.395000	-0.596079	-0.264142	0.331937	0.496649	-0.535790	0.039141
0.400000	-0.591155	-0.260464	0.330691	0.491683	-0.532228	0.040545
0.405000	-0.580791	-0.255741	0.325050	0.482971	-0.522987	0.040016
0.410000	-0.565687	-0.250222	0.315465	0.471065	-0.508734	0.037668
0.415000	-0.547364	-0.243567	0.303796	0.456644	-0.491417	0.034773
0.420000	-0.527560	-0.235851	0.291710	0.440755	-0.473006	0.032250
0.425000	-0.507245	-0.228314	0.278932	0.424675	-0.453899	0.029224
0.430000	-0.487093	-0.222082	0.265012	0.409442	-0.434228	0.024785
0.435000	-0.467705	-0.216852	0.250853	0.395229	-0.414859	0.019630
0.440000	-0.449418	-0.211739	0.237679	0.381719	-0.396696	0.014977
0.445000	-0.432767	-0.207089	0.225678	0.369421	-0.380153	0.010732
0.450000	-0.418815	-0.203534	0.215281	0.359313	-0.366096	0.006782
0.455000	-0.408876	-0.201451	0.207425	0.352373	-0.355822	0.003449
0.460000	-0.404073	-0.201825	0.202248	0.349815	-0.350059	0.000244
0.465000	-0.405896	-0.205090	0.200805	0.352753	-0.350279	-0.002474
0.470000	-0.415124	-0.210726	0.204397	0.361334	-0.357680	-0.003654
0.475000	-0.430403	-0.218324	0.212079	0.374543	-0.370937	-0.003605
0.480000	-0.449394	-0.227201	0.222193	0.390632	-0.387741	-0.002892
0.485000	-0.469138	-0.235384	0.233754	0.406756	-0.405814	-0.000941
0.490000	-0.486837	-0.241517	0.245320	0.420515	-0.422711	0.002196
0.495000	-0.500263	-0.246249	0.254014	0.430998	-0.435482	0.004483
0.500000	-0.507737	-0.249696	0.258041	0.437304	-0.442122	0.004818
0.505000	-0.508383	-0.251069	0.257314	0.438470	-0.442075	0.003605
0.510000	-0.502397	-0.250008	0.252389	0.434401	-0.435776	0.001375
0.515000	-0.491300	-0.246656	0.244644	0.426059	-0.424897	-0.001162
0.520000	-0.476373	-0.241706	0.234667	0.414583	-0.410519	-0.004064
0.525000	-0.458782	-0.236744	0.222038	0.401562	-0.393072	-0.008490
0.530000	-0.440472	-0.232984	0.207488	0.388820	-0.374100	-0.014720
0.535000	-0.423506	-0.230429	0.193077	0.377550	-0.355984	-0.021565
0.540000	-0.409654	-0.228565	0.181089	0.368476	-0.341065	-0.027411
0.545000	-0.401553	-0.227387	0.174166	0.363119	-0.332391	-0.030728
0.550000	-0.401180	-0.226862	0.174318	0.362600	-0.332264	-0.030337
0.555000	-0.407275	-0.226590	0.180685	0.365962	-0.339459	-0.026503
0.560000	-0.416909	-0.226168	0.190741	0.371281	-0.350827	-0.020453
0.565000	-0.427406	-0.225331	0.202075	0.376858	-0.363431	-0.013427
0.570000	-0.436276	-0.223912	0.212364	0.381160	-0.374493	-0.006668
0.575000	-0.441126	-0.221656	0.219470	0.382657	-0.381395	-0.001262
0.580000	-0.440381	-0.217933	0.222449	0.380078	-0.382685	0.002607
0.585000	-0.433644	-0.211868	0.221776	0.372686	-0.378407	0.005720
0.590000	-0.420818	-0.204019	0.216799	0.360749	-0.368128	0.007379
0.595000	-0.402530	-0.196120	0.206409	0.345631	-0.351571	0.005940
0.600000	-0.381177	-0.188724	0.192454	0.329032	-0.331186	0.002154
0.605000	-0.358856	-0.181232	0.177623	0.311820	-0.309736	-0.002084
0.610000	-0.336789	-0.173958	0.162831	0.294880	-0.288456	-0.006424
0.615000	-0.315667	-0.166868	0.148799	0.278592	-0.268160	-0.010432
0.620000	-0.295605	-0.159694	0.135911	0.262867	-0.249136	-0.013731
0.625000	-0.276521	-0.153388	0.123132	0.248208	-0.230740	-0.017468
0.630000	-0.258780	-0.148729	0.110051	0.235276	-0.212945	-0.022331
0.635000	-0.243557	-0.145138	0.098420	0.224413	-0.197440	-0.026973
0.640000	-0.232349	-0.142693	0.089655	0.216530	-0.185909	-0.030621
0.645000	-0.226772	-0.141995	0.084777	0.212908	-0.179872	-0.033035
0.650000	-0.227730	-0.142813	0.084917	0.213933	-0.180507	-0.033426
0.655000	-0.236198	-0.145561	0.090637	0.220408	-0.188698	-0.031711
0.660000	-0.253110	-0.151329	0.101781	0.233503	-0.204896	-0.028607
0.665000	-0.278449	-0.159901	0.118548	0.253081	-0.229206	-0.023875
0.670000	-0.310925	-0.170084	0.140841	0.277710	-0.260827	-0.016883
0.675000	-0.347529	-0.181051	0.166478	0.305176	-0.296762	-0.008413
0.680000	-0.384708	-0.192504	0.192204	0.333253	-0.333080	-0.000173
0.685000	-0.419571	-0.203391	0.216180	0.359667	-0.367051	0.007384
0.690000	-0.449901	-0.213062	0.236839	0.382761	-0.396489	0.013728
0.695000	-0.474142	-0.221197	0.252944	0.401454	-0.419783	0.018329
0.700000	-0.490629	-0.226648	0.263981	0.414120	-0.435674	0.021554
0.705000	-0.498165	-0.228918	0.269247	0.419782	-0.443066	0.023284
0.710000	-0.497160	-0.229251	0.267908	0.419393	-0.441712	0.022319
0.715000	-0.489131	-0.228373	0.260758	0.414251	-0.432948	0.018697
0.720000	-0.475605	-0.225752	0.249853	0.404929	-0.418843	0.013915
0.725000	-0.457430	-0.221455	0.235975	0.391954	-0.400337	0.008383
0.730000	-0.436112	-0.216112	0.220000	0.376562	-0.378806	0.002244
0.735000	-0.414603	-0.210536	0.204067	0.360924	-0.357189	-0.003735
0.740000	-0.396235	-0.205325	0.190909	0.347311	-0.338987	-0.008323
0.745000	-0.382530	-0.201130	0.181399	0.336976	-0.325585	-0.011392
0.750000	-0.372497	-0.197527	0.174971	0.329104	-0.316081	-0.013023
0.755000	-0.363653	-0.193494	0.170159	0.321669	-0.308196	-0.013472
0.760000	-0.353281	-0.188666	0.164614	0.312893	-0.299007	-0.013886
0.765000	-0.339026	-0.182162	0.156864	0.300907	-0.286302	-0.014606
0.770000	-0.319132	-0.172713	0.146418	0.283967	-0.268785	-0.015181
0.775000	-0.294197	-0.161311	0.132886	0.262988	-0.246576	-0.016412
0.780000	-0.266123	-0.149468	0.116655	0.239942	-0.220997	-0.018945
0.785000	-0.236804	-0.137686	0.099119	0.216212	-0.193945	-0.022267
0.790000	-0.207941	-0.126416	0.081524	0.193041	-0.167123	-0.025919
0.795000	-0.180685	-0.116228	0.064456	0.171423	-0.141532	-0.029891
0.800000	-0.155364	-0.107334	0.048031	0.151669	-0.117430	-0.034239
0.805000	-0.132286	-0.099659	0.032627	0.133913	-0.095213	-0.038701
0.810000	-0.111596	-0.093546	0.018050	0.118438	-0.074851	-0.043587
0.815000	-0.093207	-0.089068	0.004139	0.105236	-0.056203	-0.049034
0.820000	-0.077660	-0.085699	-0.008039	0.094315	-0.040196	-0.054119
0.825000	-0.066260	-0.083429	-0.017169	0.086423	-0.028342	-0.058080
0.830000	-0.059913	-0.082495	-0.022582	0.082219	-0.021553	-0.060666
0.835000	-0.059790	-0.082994	-0.023204	0.082437	-0.021123	-0.061314
0.840000	-0.067690	-0.085771	-0.018082	0.088601	-0.028641	-0.059960
0.845000	-0.085186	-0.091944	-0.006758	0.102266	-0.045281	-0.056986
0.850000	-0.113344	-0.101873	0.011471	0.124255	-0.072062	-0.052194
0.855000	-0.151680	-0.114885	0.036795	0.153901	-0.108816	-0.045085
0.860000	-0.198022	-0.129454	0.068568	0.189069	-0.153916	-0.035153
0.865000	-0.248649	-0.143872	0.104777	0.226622	-0.204050	-0.022571
0.870000	-0.300188	-0.157269	0.142919	0.264113	-0.255828	-0.008285
0.875000	-0.350646	-0.169997	0.180649	0.300593	-0.306743	0.006150
0.880000	-0.398202	-0.182336	0.215866	0.335173	-0.354532	0.019358
0.885000	-0.440269	-0.193207	0.247062	0.365738	-0.396831	0.031093
0.890000	-0.473393	-0.201849	0.271545	0.389851	-0.430090	0.040239
0.895000	-0.495241	-0.208033	0.287208	0.406035	-0.451747	0.045712
0.900000	-0.505620	-0.211735	0.293885	0.414165	-0.461594	0.047429
0.905000	-0.505743	-0.213103	0.292640	0.415026	-0.460946	0.045920
0.910000	-0.497147	-0.212305	0.284842	0.409602	-0.451481	0.041880
0.915000	-0.482054	-0.209498	0.272556	0.399267	-0.435674	0.036407
0.920000	-0.462315	-0.204947	0.257368	0.385243	-0.415509	0.030266
0.925000	-0.438432	-0.199222	0.239210	0.368150	-0.391237	0.023087
0.930000	-0.411560	-0.192813	0.218746	0.348935	-0.363907	0.014973
0.935000	-0.384123	-0.186056	0.198067	0.329193	-0.336128	0.006935
0.940000	-0.357943	-0.179110	0.178832	0.310067	-0.309907	-0.000160
0.945000	-0.332520	-0.171629	0.160891	0.291070	-0.284871	-0.006199
0.950000	-0.305682	-0.162046	0.143636	0.270042	-0.259413	-0.010629
0.955000	-0.274722	-0.149896	0.124826	0.245154	-0.230679	-0.014474
0.960000	-0.237853	-0.135896	0.101957	0.215784	-0.196189	-0.019595
0.965000	-0.195409	-0.121344	0.074065	0.182877	-0.155580	-0.027297
0.970000	-0.149153	-0.106959	0.042194	0.147866	-0.110474	-0.037392
0.975000	-0.101763	-0.093168	0.008595	0.112543	-0.063715	-0.048829
0.980000	-0.057012	-0.080400	-0.023389	0.079335	-0.019412	-0.059923
0.985000	-0.018980	-0.069142	-0.050162	0.050877	0.018003	-0.068880
0.990000	0.010392	-0.059946	-0.070339	0.028610	0.046610	-0.075220
0.995000	0.031055	-0.053624	-0.084679	0.013031	0.066819	-0.079850
1.000000	0.043459	-0.049407	-0.092866	0.003434	0.078707	-0.082141
1.005000	0.048993	-0.046339	-0.095332	-0.001532	0.083327	-0.081794
1.010000	0.049395	-0.045070	-0.094465	-0.002497	0.083057	-0.080561
1.015000	0.046064	-0.045790	-0.091854	-0.000158	0.079627	-0.079469
1.020000	0.038506	-0.048399	-0.086905	0.005711	0.072406	-0.078118
1.025000	0.024103	-0.053403	-0.077506	0.016916	0.058664	-0.075581
1.030000	0.000547	-0.060967	-0.061514	0.034884	0.035831	-0.070714
1.035000	-0.032093	-0.070500	-0.038407	0.059232	0.003645	-0.062878
1.040000	-0.071244	-0.081095	-0.009850	0.087953	-0.035446	-0.052507
1.045000	-0.113033	-0.092469	0.020565	0.118647	-0.077133	-0.041514
1.050000	-0.153936	-0.104211	0.049725	0.149041	-0.117584	-0.031457
1.055000	-0.192421	-0.116087	0.076333	0.178117	-0.155165	-0.022952
1.060000	-0.228371	-0.128052	0.100320	0.205781	-0.189770	-0.016011
1.065000	-0.261426	-0.138871	0.122554	0.231111	-0.221691	-0.009421
1.070000	-0.291791	-0.147372	0.144419	0.253551	-0.251846	-0.001705
1.075000	-0.320924	-0.154385	0.166539	0.274419	-0.281436	0.007017
1.080000	-0.350491	-0.161504	0.188987	0.295600	-0.311468	0.015868
1.085000	-0.382291	-0.169322	0.212970	0.318474	-0.343674	0.025200
1.090000	-0.417727	-0.177890	0.239837	0.343880	-0.379645	0.035765
1.095000	-0.455937	-0.187158	0.268779	0.371291	-0.418414	0.047123
1.100000	-0.494115	-0.196244	0.297870	0.398579	-0.457253	0.058674
1.105000	-0.529056	-0.204044	0.325012	0.423255	-0.493096	0.069841
1.110000	-0.558044	-0.210373	0.347670	0.443646	-0.522914	0.079268
1.115000	-0.580169	-0.214867	0.365302	0.459014	-0.545867	0.086853
1.120000	-0.595650	-0.217254	0.378397	0.469330	-0.562366	0.093036
1.125000	-0.604414	-0.217998	0.386416	0.474820	-0.572056	0.097236
1.130000	-0.606410	-0.217837	0.388574	0.475879	-0.574454	0.098575
1.135000	-0.602047	-0.216621	0.385426	0.472658	-0.570118	0.097460
1.140000	-0.591123	-0.213228	0.377895	0.464392	-0.559463	0.095071
1.145000	-0.572656	-0.207513	0.365143	0.450430	-0.541438	0.091007
1.150000	-0.545787	-0.199804	0.345984	0.430467	-0.514864	0.084397
1.155000	-0.510786	-0.190069	0.320717	0.404639	-0.480068	0.075430
1.160000	-0.469353	-0.179312	0.290040	0.374507	-0.438435	0.063929
1.165000	-0.424106	-0.167722	0.256384	0.341691	-0.392881	0.051189
1.170000	-0.377856	-0.154993	0.222864	0.307640	-0.346826	0.039185
1.175000	-0.333013	-0.142169	0.190844	0.274346	-0.302449	0.028103
1.180000	-0.290593	-0.130160	0.160433	0.242922	-0.260400	0.017478
1.185000	-0.250190	-0.118731	0.131459	0.212996	-0.220345	0.007348
1.190000	-0.210536	-0.107584	0.102952	0.183666	-0.180992	-0.002674
1.195000	-0.170669	-0.096981	0.073688	0.154528	-0.141080	-0.013448
1.200000	-0.130926	-0.086847	0.044079	0.125731	-0.101040	-0.024692
1.205000	-0.091258	-0.076995	0.014264	0.097141	-0.060923	-0.036218
1.210000	-0.051388	-0.067967	-0.016579	0.068910	-0.020097	-0.048813
1.215000	-0.012737	-0.060242	-0.047505	0.042134	0.020074	-0.062208
1.220000	0.023008	-0.053674	-0.076682	0.017705	0.057556	-0.075261
1.225000	0.054476	-0.048532	-0.103009	-0.003432	0.090924	-0.087492
1.230000	0.080109	-0.044809	-0.124917	-0.020380	0.118372	-0.097991
1.235000	0.098292	-0.041995	-0.140288	-0.032503	0.137744	-0.105241
1.240000	0.107679	-0.040480	-0.148159	-0.038797	0.147708	-0.108911
1.245000	0.108771	-0.041034	-0.149805	-0.039108	0.149289	-0.110181
1.250000	0.103195	-0.042933	-0.146128	-0.034792	0.143947	-0.109154
1.255000	0.092463	-0.045001	-0.137464	-0.027403	0.132749	-0.105346
1.260000	0.078339	-0.047148	-0.125487	-0.018008	0.117679	-0.099671
1.265000	0.061538	-0.049930	-0.111467	-0.006702	0.099885	-0.093183
1.270000	0.040802	-0.053963	-0.094765	0.007599	0.078269	-0.085868
1.275000	0.015572	-0.059949	-0.075521	0.025621	0.052593	-0.078214
1.280000	-0.012761	-0.067970	-0.055210	0.046610	0.024508	-0.071118
1.285000	-0.042368	-0.076525	-0.034157	0.068643	-0.004741	-0.063902
1.290000	-0.071245	-0.083239	-0.011994	0.089191	-0.034208	-0.054983
1.295000	-0.097866	-0.087722	0.010144	0.107149	-0.062359	-0.044790
1.300000	-0.122316	-0.090914	0.031402	0.123108	-0.088749	-0.034360
1.305000	-0.145135	-0.093478	0.051657	0.137763	-0.113617	-0.024146
1.310000	-0.166056	-0.096099	0.069957	0.151355	-0.136262	-0.015093
1.315000	-0.185766	-0.098773	0.086994	0.164279	-0.157478	-0.006801
1.320000	-0.205348	-0.100822	0.104525	0.176767	-0.178905	0.002138
1.325000	-0.226151	-0.102866	0.123285	0.189958	-0.201747	0.011789
1.330000	-0.249378	-0.105321	0.144057	0.204785	-0.227150	0.022364
1.335000	-0.274098	-0.107418	0.166680	0.220269	-0.254483	0.034215
1.340000	-0.297672	-0.109066	0.188606	0.234830	-0.280752	0.045922
1.345000	-0.317830	-0.111455	0.206375	0.247848	-0.302649	0.054802
1.350000	-0.333283	-0.114569	0.218714	0.258567	-0.318696	0.060129
1.355000	-0.342919	-0.116817	0.226102	0.265429	-0.328525	0.063096
1.360000	-0.345250	-0.117028	0.228221	0.266896	-0.331094	0.064197
1.365000	-0.338318	-0.114790	0.223528	0.261602	-0.324381	0.062780
1.370000	-0.320211	-0.110118	0.210093	0.248450	-0.306171	0.057721
1.375000	-0.290918	-0.103716	0.187202	0.227842	-0.276043	0.048201
1.380000	-0.253888	-0.096268	0.157620	0.202162	-0.237584	0.035422
1.385000	-0.213599	-0.088208	0.125391	0.174248	-0.195716	0.021467
1.390000	-0.172633	-0.079786	0.092847	0.145734	-0.153275	0.007540
1.395000	-0.131532	-0.070751	0.060781	0.116788	-0.111032	-0.005756
1.400000	-0.090089	-0.060277	0.029812	0.086814	-0.069225	-0.017589
1.405000	-0.048400	-0.048188	0.000212	0.055765	-0.028067	-0.027699
1.410000	-0.006643	-0.035255	-0.028612	0.024190	0.012684	-0.036873
1.415000	0.034131	-0.022593	-0.056724	-0.006662	0.052455	-0.045793
1.420000	0.071821	-0.010738	-0.082559	-0.035266	0.089132	-0.053865
1.425000	0.104813	-0.000456	-0.105268	-0.060251	0.121290	-0.061040
1.430000	0.132284	0.007856	-0.124428	-0.080910	0.148212	-0.067303
1.435000	0.154244	0.014749	-0.139495	-0.097568	0.169590	-0.072022
1.440000	0.171170	0.020226	-0.150944	-0.110503	0.185973	-0.075470
1.445000	0.183540	0.023384	-0.160156	-0.119467	0.198433	-0.078966
1.450000	0.191598	0.024377	-0.167221	-0.124694	0.207164	-0.082471
1.455000	0.195143	0.024223	-0.170920	-0.126651	0.211346	-0.084696
1.460000	0.193587	0.022706	-0.170881	-0.124877	0.210426	-0.085549
1.465000	0.185372	0.019201	-0.166172	-0.118110	0.202964	-0.084854
1.470000	0.168517	0.014074	-0.154443	-0.105419	0.186461	-0.081042
1.475000	0.141095	0.007139	-0.133956	-0.085583	0.158800	-0.073218
1.480000	0.102191	-0.002569	-0.104760	-0.057517	0.119483	-0.061967
1.485000	0.052559	-0.014898	-0.067457	-0.021744	0.069291	-0.047547
1.490000	-0.005053	-0.029792	-0.024738	0.020118	0.011365	-0.031483
1.495000	-0.066076	-0.046648	0.019428	0.065081	-0.049366	-0.015715
1.500000	-0.126541	-0.063598	0.062943	0.109777	-0.109399	-0.000378
1.505000	-0.185187	-0.079284	0.105902	0.152692	-0.168060	0.015368
1.510000	-0.240927	-0.093744	0.147184	0.193222	-0.224076	0.030853
1.515000	-0.291082	-0.106285	0.184798	0.229420	-0.274749	0.045330
1.520000	-0.332153	-0.115925	0.216228	0.258697	-0.316608	0.057910
1.525000	-0.361241	-0.123019	0.238222	0.279587	-0.346100	0.066513
1.530000	-0.377736	-0.128500	0.249236	0.292275	-0.361982	0.069707
1.535000	-0.383346	-0.131742	0.251604	0.297386	-0.366588	0.069202
1.540000	-0.380672	-0.132197	0.248475	0.296105	-0.363239	0.067133
1.545000	-0.371912	-0.130531	0.241380	0.290085	-0.354084	0.063999
1.550000	-0.358001	-0.127213	0.230788	0.280138	-0.339937	0.059799
1.555000	-0.337334	-0.122209	0.215126	0.265317	-0.318963	0.053646
1.560000	-0.307664	-0.115436	0.192228	0.244276	-0.288612	0.044336
1.565000	-0.269902	-0.106614	0.163288	0.217382	-0.250102	0.032720
1.570000	-0.226897	-0.095364	0.131533	0.186057	-0.206939	0.020882
1.575000	-0.180836	-0.082357	0.098479	0.151954	-0.161263	0.009308
1.580000	-0.132876	-0.068016	0.064860	0.115985	-0.114162	-0.001823
1.585000	-0.083624	-0.052088	0.031536	0.078353	-0.066488	-0.011866
1.590000	-0.032743	-0.034651	-0.001907	0.038910	-0.017803	-0.021107
1.595000	0.019998	-0.016882	-0.036880	-0.001799	0.032838	-0.031040
1.600000	0.073161	0.000183	-0.072978	-0.042345	0.084374	-0.042029
1.605000	0.123490	0.015418	-0.108072	-0.080199	0.133692	-0.053494
1.610000	0.168188	0.027428	-0.140760	-0.112939	0.178371	-0.065432
1.615000	0.205901	0.036380	-0.169521	-0.139880	0.216750	-0.076869
1.620000	0.235966	0.043319	-0.192647	-0.161245	0.247460	-0.086214
1.625000	0.257807	0.048257	-0.209550	-0.176706	0.269828	-0.093123
1.630000	0.272066	0.050850	-0.221216	-0.186436	0.284797	-0.098361
1.635000	0.280322	0.051858	-0.228464	-0.191784	0.293747	-0.101963
1.640000	0.283552	0.051695	-0.231858	-0.193555	0.297572	-0.104017
1.645000	0.282272	0.050471	-0.231801	-0.192109	0.296800	-0.104691
1.650000	0.276319	0.049113	-0.227205	-0.187888	0.290710	-0.102821
1.655000	0.264601	0.047380	-0.217222	-0.180122	0.278181	-0.098058
1.660000	0.245342	0.043562	-0.201780	-0.166799	0.258146	-0.091347
1.665000	0.215847	0.036058	-0.179789	-0.145437	0.228420	-0.082983
1.670000	0.174665	0.024628	-0.150036	-0.115062	0.187466	-0.072404
1.675000	0.122774	0.009943	-0.112831	-0.076624	0.136026	-0.059402
1.680000	0.062619	-0.006739	-0.069358	-0.032262	0.076197	-0.043935
1.685000	-0.002274	-0.023165	-0.020891	0.014687	0.010749	-0.025436
1.690000	-0.068147	-0.038092	0.030055	0.061337	-0.056697	-0.004640
1.695000	-0.132190	-0.051874	0.080316	0.106269	-0.122690	0.016421
1.700000	-0.193392	-0.064929	0.128463	0.149141	-0.185823	0.036681
1.705000	-0.250397	-0.077727	0.172670	0.189442	-0.244257	0.054815
1.710000	-0.300249	-0.090403	0.209846	0.225543	-0.294504	0.068960
1.715000	-0.339805	-0.101686	0.238118	0.254895	-0.333664	0.078769
1.720000	-0.367061	-0.110044	0.257017	0.275456	-0.360311	0.084855
1.725000	-0.381874	-0.115238	0.266636	0.287008	-0.374417	0.087409
1.730000	-0.385978	-0.117452	0.268526	0.290655	-0.377878	0.087222
1.735000	-0.382232	-0.116630	0.265603	0.288018	-0.374027	0.086010
1.740000	-0.372369	-0.113414	0.258955	0.280466	-0.364495	0.084028
1.745000	-0.355330	-0.108446	0.246884	0.267761	-0.347688	0.079927
1.750000	-0.329314	-0.101512	0.227802	0.248737	-0.321651	0.072914
1.755000	-0.294340	-0.092300	0.202040	0.223227	-0.286585	0.063358
1.760000	-0.252621	-0.081337	0.171284	0.192811	-0.244741	0.051931
1.765000	-0.205919	-0.069025	0.136894	0.158739	-0.197923	0.039184
1.770000	-0.154690	-0.054944	0.099746	0.121033	-0.146899	0.025866
1.775000	-0.099370	-0.039442	0.059928	0.080143	-0.091971	0.011827
1.780000	-0.040800	-0.023523	0.017277	0.037137	-0.033531	-0.003606
1.785000	0.020050	-0.006954	-0.027004	-0.007561	0.027167	-0.019606
1.790000	0.081400	0.009774	-0.071626	-0.052639	0.088350	-0.035711
1.795000	0.140181	0.025224	-0.114957	-0.095497	0.147304	-0.051807
1.800000	0.193046	0.038938	-0.154108	-0.133936	0.200430	-0.066493
1.805000	0.237583	0.050656	-0.186927	-0.166415	0.245091	-0.078676
1.810000	0.272753	0.059795	-0.212958	-0.191996	0.280425	-0.088428
1.815000	0.299002	0.066150	-0.232852	-0.210820	0.307066	-0.096245
1.820000	0.317277	0.070081	-0.247196	-0.223641	0.325899	-0.102258
1.825000	0.328301	0.071781	-0.256520	-0.230987	0.337646	-0.106659
1.830000	0.332874	0.071827	-0.261047	-0.233654	0.342900	-0.109246
1.835000	0.331977	0.071031	-0.260946	-0.232676	0.342324	-0.109648
1.840000	0.326532	0.069135	-0.257397	-0.228438	0.337131	-0.108693
1.845000	0.316722	0.065697	-0.251025	-0.220789	0.327789	-0.107000
1.850000	0.301573	0.061043	-0.240530	-0.209356	0.312983	-0.103626
1.855000	0.279273	0.054971	-0.224302	-0.192976	0.290739	-0.097763
1.860000	0.248006	0.046226	-0.201780	-0.169875	0.259683	-0.089809
1.865000	0.206742	0.034123	-0.172619	-0.139063	0.219024	-0.079961
1.870000	0.155915	0.019337	-0.136577	-0.101182	0.168870	-0.067688
1.875000	0.097581	0.003122	-0.094459	-0.058141	0.110874	-0.052733
1.880000	0.035636	-0.012774	-0.048410	-0.013200	0.048524	-0.035324
1.885000	-0.025907	-0.026266	-0.000359	0.030122	-0.014751	-0.015372
1.890000	-0.085708	-0.037461	0.048247	0.071112	-0.077339	0.006227
1.895000	-0.144533	-0.048417	0.096116	0.111400	-0.138939	0.027539
1.900000	-0.201746	-0.059566	0.142179	0.150869	-0.198565	0.047696
1.905000	-0.254315	-0.069921	0.184394	0.187197	-0.253289	0.066091
1.910000	-0.298812	-0.079002	0.219810	0.218131	-0.299426	0.081295
1.915000	-0.332096	-0.086026	0.246070	0.241403	-0.333804	0.092401
1.920000	-0.353270	-0.090859	0.262411	0.256418	-0.355464	0.099045
1.925000	-0.363891	-0.094214	0.269677	0.264487	-0.365791	0.101304
1.930000	-0.366186	-0.096457	0.269729	0.267107	-0.367145	0.100038
1.935000	-0.361854	-0.096511	0.265344	0.264637	-0.362113	0.097476
1.940000	-0.350359	-0.093640	0.256719	0.256342	-0.350496	0.094154
1.945000	-0.329140	-0.088430	0.240710	0.241084	-0.329003	0.087919
1.950000	-0.296493	-0.081177	0.215316	0.218048	-0.295493	0.077445
1.955000	-0.254172	-0.071753	0.182418	0.188173	-0.252065	0.063892
1.960000	-0.207049	-0.060948	0.146100	0.154728	-0.203891	0.049163
1.965000	-0.160458	-0.049751	0.110707	0.121364	-0.156557	0.035193
1.970000	-0.118315	-0.039045	0.079270	0.090852	-0.114076	0.023224
1.975000	-0.082574	-0.029719	0.052855	0.064832	-0.078190	0.013358
1.980000	-0.053540	-0.021886	0.031655	0.043547	-0.049187	0.005640
1.985000	-0.030648	-0.015759	0.014888	0.026793	-0.026290	-0.000503
1.990000	-0.013185	-0.012074	0.001111	0.014583	-0.008254	-0.006330
1.995000	-0.000446	-0.011163	-0.010716	0.006703	0.005929	-0.012632
2.000000	0.008026	-0.011973	-0.019999	0.002278	0.016181	-0.018459
2.005000	0.011891	-0.013262	-0.025153	0.000791	0.021388	-0.022179
2.010000	0.010655	-0.015007	-0.025662	0.002513	0.020967	-0.023480
2.015000	0.004356	-0.017570	-0.021926	0.007629	0.015174	-0.022803
2.020000	-0.006419	-0.021073	-0.014654	0.015873	0.004754	-0.020627
2.025000	-0.020484	-0.026103	-0.005619	0.026897	-0.008582	-0.018315
2.030000	-0.036684	-0.032361	0.004322	0.039863	-0.023675	-0.016188
2.035000	-0.054535	-0.037987	0.016548	0.053417	-0.041040	-0.012377
2.040000	-0.073502	-0.042251	0.031251	0.066830	-0.060479	-0.006351
2.045000	-0.092405	-0.046681	0.045724	0.080301	-0.079749	-0.000552
2.050000	-0.109878	-0.051666	0.058212	0.093267	-0.097047	0.003779
2.055000	-0.124497	-0.055644	0.068853	0.104004	-0.111631	0.007626
2.060000	-0.134908	-0.057871	0.077037	0.111301	-0.122366	0.011066
2.065000	-0.140307	-0.058206	0.082101	0.114612	-0.128408	0.013796
2.070000	-0.141047	-0.056037	0.085010	0.113786	-0.130514	0.016728
2.075000	-0.137825	-0.051559	0.086266	0.109341	-0.129379	0.020039
2.080000	-0.130437	-0.045594	0.084843	0.101632	-0.124292	0.022660
2.085000	-0.118865	-0.039168	0.079696	0.091240	-0.114639	0.023399
2.090000	-0.103620	-0.032740	0.070880	0.078728	-0.100748	0.022020
2.095000	-0.085150	-0.026095	0.059055	0.064227	-0.083257	0.019029
2.100000	-0.064425	-0.018853	0.045572	0.048081	-0.063507	0.015426
2.105000	-0.043759	-0.011167	0.032591	0.031712	-0.044081	0.012369
2.110000	-0.026431	-0.004247	0.022184	0.017712	-0.028068	0.010356
2.115000	-0.015111	0.001124	0.016236	0.008075	-0.018098	0.010023
2.120000	-0.011442	0.005187	0.016628	0.003611	-0.016206	0.012595
2.125000	-0.015098	0.007891	0.022989	0.004161	-0.021990	0.017829
2.130000	-0.024750	0.008903	0.033652	0.009149	-0.033718	0.024569
2.135000	-0.038252	0.008333	0.046584	0.017274	-0.048980	0.031706
2.140000	-0.053023	0.006569	0.059592	0.026820	-0.065018	0.038198
2.145000	-0.065776	0.004057	0.069833	0.035634	-0.078294	0.042660
2.150000	-0.073472	0.001851	0.075323	0.041350	-0.085907	0.044557
2.155000	-0.073941	0.001144	0.075085	0.042029	-0.086040	0.044011
2.160000	-0.065636	0.003774	0.069411	0.035716	-0.077969	0.042253
2.165000	-0.047874	0.012839	0.060712	0.020227	-0.062692	0.042465
2.170000	-0.020856	0.030280	0.051135	-0.005441	-0.041564	0.047005
2.175000	0.014634	0.054699	0.040064	-0.040029	-0.014682	0.054711
2.180000	0.056677	0.082659	0.025982	-0.080445	0.017722	0.062724
2.185000	0.102693	0.110821	0.008128	-0.123272	0.054597	0.068675
2.190000	0.150127	0.136230	-0.013896	-0.165328	0.094699	0.070629
2.195000	0.195818	0.156048	-0.039770	-0.203150	0.136017	0.067133
2.200000	0.235810	0.169171	-0.066639	-0.233816	0.174619	0.059197
2.205000	0.267371	0.176359	-0.091013	-0.256187	0.206913	0.049274
2.210000	0.290082	0.178274	-0.111808	-0.270405	0.232031	0.038374
2.215000	0.304280	0.175432	-0.128849	-0.276962	0.250067	0.026895
2.220000	0.311098	0.168938	-0.142160	-0.277149	0.261689	0.015460
2.225000	0.312262	0.159508	-0.152754	-0.272376	0.268477	0.003899
2.230000	0.309293	0.147464	-0.161829	-0.263709	0.272002	-0.008294
2.235000	0.302545	0.133262	-0.169283	-0.251613	0.272410	-0.020797
2.240000	0.290035	0.116449	-0.173586	-0.234683	0.267671	-0.032988
2.245000	0.269095	0.096460	-0.172635	-0.211053	0.255032	-0.043979
2.250000	0.238792	0.073776	-0.165015	-0.180461	0.233138	-0.052677
2.255000	0.200672	0.050178	-0.150494	-0.144829	0.202746	-0.057917
2.260000	0.158202	0.027595	-0.130607	-0.107270	0.166744	-0.059474
2.265000	0.115534	0.008280	-0.107254	-0.071484	0.128627	-0.057143
2.270000	0.075240	-0.005422	-0.080661	-0.040309	0.090009	-0.049700
2.275000	0.037733	-0.013036	-0.050770	-0.014259	0.051097	-0.036839
2.280000	0.003147	-0.015055	-0.018202	0.006875	0.012326	-0.019201
2.285000	-0.028267	-0.012319	0.015948	0.023432	-0.025527	0.002095
2.290000	-0.057658	-0.007623	0.050035	0.037690	-0.062176	0.024486
2.295000	-0.087166	-0.004891	0.082275	0.053149	-0.097827	0.044678
2.300000	-0.118788	-0.007017	0.111771	0.072633	-0.133113	0.060480
2.305000	-0.153888	-0.014878	0.139010	0.097437	-0.169105	0.071668
2.310000	-0.191955	-0.028350	0.163604	0.127193	-0.205282	0.078089
2.315000	-0.230673	-0.046011	0.184662	0.159743	-0.239793	0.080050
2.320000	-0.267336	-0.064878	0.202458	0.191804	-0.271236	0.079432
2.325000	-0.299200	-0.083316	0.215884	0.220845	-0.297384	0.076539
2.330000	-0.324600	-0.101362	0.223237	0.245929	-0.316294	0.070365
2.335000	-0.343358	-0.118388	0.224970	0.266589	-0.328124	0.061535
2.340000	-0.355397	-0.133968	0.221429	0.282535	-0.333030	0.050495
2.345000	-0.360553	-0.148013	0.212540	0.293621	-0.330875	0.037255
2.350000	-0.359177	-0.159498	0.199679	0.299457	-0.322655	0.023198
2.355000	-0.351377	-0.167036	0.184341	0.299306	-0.309297	0.009991
2.360000	-0.336238	-0.169935	0.166303	0.292239	-0.290142	-0.002096
2.365000	-0.312779	-0.167856	0.144924	0.277495	-0.264255	-0.013240
2.370000	-0.280913	-0.160155	0.120758	0.254651	-0.231905	-0.022746
2.375000	-0.242012	-0.146979	0.095033	0.224584	-0.194593	-0.029991
2.380000	-0.198519	-0.128868	0.069650	0.189017	-0.154827	-0.034190
2.385000	-0.153810	-0.105741	0.048069	0.149852	-0.116555	-0.033297
2.390000	-0.114155	-0.079365	0.034790	0.111729	-0.085993	-0.025736
2.395000	-0.088073	-0.054554	0.033519	0.082346	-0.070201	-0.012145
2.400000	-0.081808	-0.035910	0.045898	0.067965	-0.073731	0.005766
2.405000	-0.097263	-0.026356	0.070907	0.071371	-0.097093	0.025722
2.410000	-0.132296	-0.026205	0.106091	0.091511	-0.137633	0.046122
2.415000	-0.180862	-0.033074	0.147788	0.123516	-0.189746	0.066231
2.420000	-0.235065	-0.043524	0.191541	0.160843	-0.246301	0.085457
2.425000	-0.287025	-0.054755	0.232271	0.197327	-0.299816	0.102489
2.430000	-0.330974	-0.064934	0.266040	0.228577	-0.344686	0.116109
2.435000	-0.364078	-0.072418	0.291660	0.252011	-0.378590	0.126579
2.440000	-0.385977	-0.076655	0.309321	0.267101	-0.401430	0.134330
2.445000	-0.398160	-0.078247	0.319914	0.275054	-0.414580	0.139527
2.450000	-0.402687	-0.077852	0.324835	0.277439	-0.420035	0.142595
2.455000	-0.401025	-0.075595	0.325430	0.275177	-0.419419	0.144242
2.460000	-0.393801	-0.071966	0.321835	0.268911	-0.413172	0.144262
2.465000	-0.381584	-0.066950	0.314633	0.258961	-0.401961	0.143000
2.470000	-0.364752	-0.060419	0.304334	0.245472	-0.386297	0.140824
2.475000	-0.342794	-0.052739	0.290055	0.228361	-0.365375	0.137014
2.480000	-0.314514	-0.044374	0.270140	0.207204	-0.337550	0.130346
2.485000	-0.279397	-0.035059	0.244339	0.181551	-0.302379	0.120828
2.490000	-0.237518	-0.024472	0.213046	0.151260	-0.260133	0.108873
2.495000	-0.189590	-0.013303	0.176287	0.117140	-0.211239	0.094099
2.500000	-0.137079	-0.001929	0.135150	0.080257	-0.157171	0.076915
2.505000	-0.082377	0.009424	0.091801	0.042119	-0.100562	0.058442
2.510000	-0.028219	0.020113	0.048332	0.004680	-0.044196	0.039517
2.515000	0.024337	0.029902	0.005565	-0.031314	0.010838	0.020477
2.520000	0.076031	0.039676	-0.036355	-0.066803	0.064886	0.001917
2.525000	0.127674	0.050121	-0.077554	-0.102650	0.118488	-0.015838
2.530000	0.177136	0.060531	-0.116605	-0.137218	0.169591	-0.032374
2.535000	0.220641	0.070319	-0.150322	-0.167986	0.214176	-0.046190
2.540000	0.255485	0.079168	-0.176317	-0.193212	0.249301	-0.056090
2.545000	0.281393	0.085947	-0.195446	-0.212084	0.275303	-0.063219
2.550000	0.299217	0.090204	-0.209013	-0.224832	0.293427	-0.068595
2.555000	0.309790	0.092598	-0.217192	-0.232318	0.304253	-0.071935
2.560000	0.313882	0.093498	-0.220384	-0.235201	0.308458	-0.073257
2.565000	0.310532	0.093171	-0.217361	-0.233078	0.304779	-0.071701
2.570000	0.297002	0.091570	-0.205432	-0.224342	0.290080	-0.065739
2.575000	0.271520	0.087381	-0.184139	-0.207212	0.263074	-0.055863
2.580000	0.234139	0.080136	-0.154003	-0.181447	0.224094	-0.042647
2.585000	0.186151	0.070566	-0.115585	-0.148215	0.174207	-0.025992
2.590000	0.130122	0.058732	-0.071389	-0.109035	0.116343	-0.007308
2.595000	0.069761	0.044549	-0.025213	-0.065997	0.054833	0.011164
2.600000	0.008180	0.028993	0.020812	-0.021462	-0.007293	0.028755
2.605000	-0.053207	0.013093	0.066299	0.023160	-0.068997	0.045837
2.610000	-0.113056	-0.002557	0.110499	0.066749	-0.129069	0.062320
2.615000	-0.168788	-0.017064	0.151724	0.107301	-0.185048	0.077746
2.620000	-0.217332	-0.028742	0.188591	0.142071	-0.234360	0.092289
2.625000	-0.256038	-0.036822	0.219217	0.169083	-0.274388	0.105306
2.630000	-0.283667	-0.041276	0.242391	0.187606	-0.303720	0.116114
2.635000	-0.300565	-0.042519	0.258046	0.198079	-0.322514	0.124435
2.640000	-0.308038	-0.041290	0.266748	0.201685	-0.331853	0.130168
2.645000	-0.307795	-0.038583	0.269212	0.199981	-0.333135	0.133154
2.650000	-0.301358	-0.034379	0.266979	0.193838	-0.328130	0.134291
2.655000	-0.289770	-0.028666	0.261103	0.183849	-0.318046	0.134197
2.660000	-0.273608	-0.022529	0.251079	0.170974	-0.302928	0.131954
2.665000	-0.253342	-0.016758	0.236584	0.155942	-0.282858	0.126916
2.670000	-0.228995	-0.011253	0.217742	0.138707	-0.257924	0.119216
2.675000	-0.200612	-0.005927	0.194685	0.119246	-0.228225	0.108979
2.680000	-0.168283	-0.000497	0.167786	0.097445	-0.194030	0.096584
2.685000	-0.132160	0.006119	0.138279	0.072770	-0.156138	0.083368
2.690000	-0.092575	0.014584	0.107159	0.045028	-0.115316	0.070289
2.695000	-0.050255	0.024128	0.074384	0.015084	-0.071960	0.056876
2.700000	-0.007544	0.033503	0.041047	-0.014988	-0.028054	0.043041
2.705000	0.033076	0.041599	0.008524	-0.043114	0.014175	0.028938
2.710000	0.070807	0.047794	-0.023013	-0.068475	0.054167	0.014308
2.715000	0.106586	0.052966	-0.053620	-0.092117	0.092495	-0.000378
2.720000	0.142395	0.058726	-0.083669	-0.116117	0.130518	-0.014401
2.725000	0.178757	0.065494	-0.113263	-0.141018	0.168598	-0.027580
2.730000	0.213870	0.073032	-0.140838	-0.165643	0.204790	-0.039148
2.735000	0.245023	0.080273	-0.164749	-0.187810	0.236582	-0.048772
2.740000	0.270107	0.085619	-0.184489	-0.205379	0.262461	-0.057082
2.745000	0.289005	0.088590	-0.200415	-0.218005	0.282567	-0.064562
2.750000	0.302694	0.090254	-0.212440	-0.226869	0.297413	-0.070544
2.755000	0.311784	0.091991	-0.219794	-0.233120	0.306907	-0.073787
2.760000	0.315375	0.093667	-0.221708	-0.236161	0.310085	-0.073924
2.765000	0.310362	0.094332	-0.216030	-0.233650	0.303913	-0.070262
2.770000	0.292951	0.092951	-0.200001	-0.222800	0.284606	-0.061806
2.775000	0.262772	0.088093	-0.174679	-0.202572	0.252563	-0.049991
2.780000	0.224328	0.080178	-0.144150	-0.175807	0.212741	-0.036934
2.785000	0.185502	0.072356	-0.113146	-0.148874	0.172424	-0.023550
2.790000	0.154321	0.067575	-0.086746	-0.128112	0.139180	-0.011068
2.795000	0.136140	0.067516	-0.068625	-0.117581	0.118221	-0.000640
2.800000	0.132444	0.073543	-0.058900	-0.118927	0.110472	0.008454
2.805000	0.141422	0.085342	-0.056081	-0.130922	0.114028	0.016894
2.810000	0.159959	0.099925	-0.060035	-0.150044	0.127013	0.023030
2.815000	0.184800	0.113809	-0.070991	-0.172402	0.147681	0.024721
2.820000	0.212152	0.125212	-0.086940	-0.194777	0.172681	0.022097
2.825000	0.238668	0.133250	-0.105418	-0.214727	0.198658	0.016069
2.830000	0.262696	0.137561	-0.125135	-0.231088	0.223914	0.007174
2.835000	0.284192	0.138611	-0.145581	-0.244105	0.248129	-0.004024
2.840000	0.303357	0.138001	-0.165356	-0.254818	0.270612	-0.015793
2.845000	0.320389	0.137282	-0.183107	-0.264236	0.290694	-0.026457
2.850000	0.335273	0.137681	-0.197593	-0.273060	0.307650	-0.034590
2.855000	0.347923	0.139681	-0.208242	-0.281518	0.321102	-0.039584
2.860000	0.357121	0.141828	-0.215292	-0.288068	0.330483	-0.042415
2.865000	0.361258	0.142620	-0.218638	-0.290914	0.334803	-0.043889
2.870000	0.359177	0.141991	-0.217185	-0.289349	0.332763	-0.043413
2.875000	0.350380	0.139635	-0.210745	-0.282911	0.323966	-0.041055
2.880000	0.334428	0.134695	-0.199733	-0.270849	0.308398	-0.037549
2.885000	0.311143	0.127667	-0.183476	-0.253347	0.285568	-0.032221
2.890000	0.280882	0.118934	-0.161948	-0.230834	0.255668	-0.024834
2.895000	0.242987	0.107838	-0.135149	-0.202549	0.218317	-0.015768
2.900000	0.197448	0.094234	-0.103215	-0.168403	0.173588	-0.005185
2.905000	0.147004	0.078403	-0.068601	-0.130139	0.124480	0.005659
2.910000	0.095305	0.060483	-0.034822	-0.089945	0.075129	0.014815
2.915000	0.045465	0.039668	-0.005796	-0.049152	0.029596	0.019556
2.920000	0.001713	0.016675	0.014962	-0.010617	-0.007649	0.018266
2.925000	-0.031712	-0.005754	0.025958	0.021631	-0.033296	0.011665
2.930000	-0.053109	-0.024196	0.028914	0.044632	-0.047356	0.002724
2.935000	-0.063292	-0.035802	0.027490	0.057212	-0.052413	-0.004799
2.940000	-0.064398	-0.040549	0.023848	0.060591	-0.050949	-0.009642
2.945000	-0.058341	-0.040998	0.017342	0.057353	-0.043696	-0.013658
2.950000	-0.047082	-0.038840	0.008242	0.049607	-0.031942	-0.017665
2.955000	-0.031546	-0.033408	-0.001862	0.037501	-0.017138	-0.020364
2.960000	-0.011882	-0.023827	-0.011946	0.020617	0.000037	-0.020653
2.965000	0.011013	-0.010198	-0.021211	-0.000470	0.018604	-0.018134
2.970000	0.035568	0.006388	-0.029180	-0.024223	0.037383	-0.013159
2.975000	0.059687	0.023371	-0.036316	-0.047953	0.055427	-0.007474
2.980000	0.077804	0.036611	-0.041193	-0.066057	0.068703	-0.002646
2.985000	0.082588	0.043877	-0.038711	-0.073014	0.070032	0.002982
2.990000	0.070308	0.045134	-0.025173	-0.066650	0.055126	0.011525
2.995000	0.042809	0.041269	-0.001539	-0.048542	0.025604	0.022938
3.000000	0.004642	0.034238	0.029597	-0.022447	-0.014408	0.036855
3.005000	-0.039173	0.026040	0.065212	0.007582	-0.060267	0.052684
3.010000	-0.082751	0.017978	0.100729	0.037397	-0.105932	0.068535
3.015000	-0.120571	0.011336	0.131907	0.063067	-0.145768	0.082701
3.020000	-0.149258	0.007322	0.156580	0.081946	-0.176575	0.094629
3.025000	-0.167314	0.005581	0.172895	0.093376	-0.196420	0.103043
3.030000	-0.175296	0.004951	0.180247	0.098349	-0.205273	0.106924
3.035000	-0.175026	0.005457	0.180483	0.097900	-0.205253	0.107353
3.040000	-0.168210	0.006930	0.175140	0.093115	-0.198233	0.105118
3.045000	-0.156292	0.009339	0.165632	0.084843	-0.185863	0.101020
3.050000	-0.140813	0.013821	0.154634	0.073319	-0.170576	0.097257
3.055000	-0.122932	0.020720	0.143652	0.059012	-0.153912	0.094901
3.060000	-0.102743	0.028659	0.131402	0.042772	-0.135183	0.092411
3.065000	-0.080686	0.036528	0.117214	0.025495	-0.114258	0.088763
3.070000	-0.057418	0.044385	0.101803	0.007525	-0.091926	0.084402
3.075000	-0.032476	0.051981	0.084457	-0.011262	-0.067511	0.078773
3.080000	-0.005255	0.058583	0.063838	-0.030789	-0.039891	0.070680
3.085000	0.023385	0.063972	0.040587	-0.050435	-0.009932	0.060367
3.090000	0.051525	0.068069	0.016544	-0.069048	0.020197	0.048851
3.095000	0.077152	0.070433	-0.006719	-0.085208	0.048423	0.036785
3.100000	0.098916	0.071520	-0.027396	-0.098401	0.072926	0.025475
3.105000	0.116986	0.072625	-0.044362	-0.109472	0.093154	0.016318
3.110000	0.134181	0.074149	-0.060032	-0.120279	0.112129	0.008150
3.115000	0.154000	0.076180	-0.077820	-0.132894	0.133842	-0.000947
3.120000	0.177098	0.078914	-0.098183	-0.147809	0.158934	-0.011125
3.125000	0.201878	0.081662	-0.120216	-0.163702	0.185961	-0.022259
3.130000	0.226762	0.083726	-0.143036	-0.179260	0.213503	-0.034243
3.135000	0.250548	0.085397	-0.165151	-0.193958	0.240004	-0.046046
3.140000	0.271972	0.087343	-0.184629	-0.207450	0.263618	-0.056168
3.145000	0.290383	0.089786	-0.200597	-0.219490	0.283467	-0.063976
3.150000	0.304855	0.093074	-0.211781	-0.229744	0.298280	-0.068536
3.155000	0.313452	0.097121	-0.216331	-0.237044	0.305871	-0.068826
3.160000	0.313759	0.100159	-0.213600	-0.238976	0.304471	-0.065495
3.165000	0.303403	0.100248	-0.203155	-0.233048	0.292461	-0.059413
3.170000	0.281355	0.096765	-0.184590	-0.218307	0.269013	-0.050706
3.175000	0.248688	0.090152	-0.158535	-0.195629	0.235110	-0.039481
3.180000	0.208324	0.081770	-0.126554	-0.167486	0.193342	-0.025856
3.185000	0.163395	0.073394	-0.090001	-0.136710	0.146298	-0.009588
3.190000	0.116821	0.065840	-0.050980	-0.105459	0.096880	0.008579
3.195000	0.072093	0.058562	-0.013531	-0.075434	0.049436	0.025998
3.200000	0.032340	0.051727	0.019387	-0.048536	0.007478	0.041057
3.205000	-0.000404	0.045945	0.046348	-0.026293	-0.026992	0.053285
3.210000	-0.024838	0.041636	0.066474	-0.009699	-0.052719	0.062418
3.215000	-0.040263	0.039401	0.079664	0.000498	-0.069240	0.068742
3.220000	-0.046480	0.039721	0.086202	0.003902	-0.076604	0.072702
3.225000	-0.043680	0.042209	0.085889	0.000849	-0.074807	0.073957
3.230000	-0.033483	0.045597	0.079080	-0.006994	-0.064988	0.071983
3.235000	-0.018601	0.049681	0.068282	-0.017944	-0.050162	0.068106
3.240000	-0.001035	0.054469	0.055505	-0.030850	-0.032643	0.063493
3.245000	0.017943	0.059768	0.041824	-0.044867	-0.013788	0.058654
3.250000	0.037823	0.065770	0.027947	-0.059810	0.005702	0.054108
3.255000	0.058409	0.072512	0.014103	-0.075587	0.025580	0.050007
3.260000	0.079489	0.079145	-0.000344	-0.091587	0.046091	0.045496
3.265000	0.100185	0.084931	-0.015254	-0.106877	0.066648	0.040228
3.270000	0.118867	0.089811	-0.029056	-0.120480	0.085404	0.035077
3.275000	0.134417	0.092960	-0.041457	-0.131276	0.101541	0.029736
3.280000	0.146027	0.093902	-0.052125	-0.138523	0.114403	0.024120
3.285000	0.152926	0.092971	-0.059955	-0.141968	0.122907	0.019062
3.290000	0.155387	0.090528	-0.064859	-0.141979	0.127159	0.014820
3.295000	0.154386	0.087010	-0.067376	-0.139370	0.128034	0.011336
3.300000	0.151742	0.083412	-0.068331	-0.135766	0.127059	0.008707
3.305000	0.150344	0.080498	-0.069846	-0.133277	0.127127	0.006150
3.310000	0.153346	0.077820	-0.075526	-0.133464	0.132140	0.001325
3.315000	0.161933	0.075487	-0.086446	-0.137074	0.143401	-0.006327
3.320000	0.174936	0.074283	-0.100653	-0.143887	0.159112	-0.015224
3.325000	0.190395	0.074148	-0.116247	-0.152734	0.177040	-0.024306
3.330000	0.206779	0.074565	-0.132214	-0.162434	0.195718	-0.033284
3.335000	0.223476	0.076236	-0.147240	-0.173039	0.214033	-0.040994
3.340000	0.239866	0.079461	-0.160404	-0.184363	0.231096	-0.046733
3.345000	0.254608	0.082939	-0.171669	-0.194882	0.246111	-0.051229
3.350000	0.265084	0.085708	-0.179376	-0.202529	0.256609	-0.054079
3.355000	0.267846	0.087170	-0.180676	-0.204969	0.258954	-0.053985
3.360000	0.260949	0.087201	-0.173748	-0.201004	0.250972	-0.049968
3.365000	0.245134	0.085830	-0.159304	-0.191082	0.233502	-0.042420
3.370000	0.224552	0.083775	-0.140777	-0.178012	0.210922	-0.032910
3.375000	0.206462	0.082392	-0.124070	-0.166770	0.190832	-0.024062
3.380000	0.198203	0.082657	-0.115546	-0.162154	0.181143	-0.018988
3.385000	0.203571	0.085716	-0.117855	-0.167020	0.185575	-0.018556
3.390000	0.222508	0.091972	-0.130535	-0.181565	0.203829	-0.022264
3.395000	0.252671	0.101064	-0.151607	-0.204229	0.233410	-0.029181
3.400000	0.290197	0.112725	-0.177472	-0.232627	0.270009	-0.037382
3.405000	0.331231	0.125776	-0.205455	-0.263853	0.309856	-0.046003
3.410000	0.372056	0.138060	-0.233996	-0.294515	0.349904	-0.055388
3.415000	0.408772	0.148492	-0.260280	-0.321736	0.386277	-0.064541
3.420000	0.438791	0.157452	-0.281339	-0.344241	0.415767	-0.071526
3.425000	0.461303	0.164548	-0.296755	-0.361335	0.437665	-0.076330
3.430000	0.477239	0.169390	-0.307849	-0.373331	0.453270	-0.079939
3.435000	0.487503	0.172218	-0.315285	-0.380890	0.463490	-0.082600
3.440000	0.492583	0.173322	-0.319261	-0.384461	0.468718	-0.084257
3.445000	0.492469	0.172666	-0.319803	-0.384016	0.468966	-0.084949
3.450000	0.485741	0.170632	-0.315109	-0.378957	0.462370	-0.083414
3.455000	0.470675	0.167481	-0.303194	-0.368439	0.446793	-0.078354
3.460000	0.446576	0.161769	-0.284807	-0.351228	0.422264	-0.071036
3.465000	0.414228	0.152579	-0.261650	-0.327246	0.390218	-0.062972
3.470000	0.374892	0.140920	-0.233972	-0.297804	0.351528	-0.053724
3.475000	0.330720	0.128274	-0.202446	-0.265000	0.307823	-0.042823
3.480000	0.284096	0.115113	-0.168983	-0.230483	0.261585	-0.031102
3.485000	0.236725	0.102199	-0.134526	-0.195678	0.214342	-0.018664
3.490000	0.189524	0.089593	-0.099931	-0.161148	0.167117	-0.005969
3.495000	0.143647	0.077077	-0.066570	-0.127435	0.121369	0.006066
3.500000	0.099463	0.065199	-0.034264	-0.095068	0.077208	0.017860
3.505000	0.056107	0.054342	-0.001765	-0.063768	0.033413	0.030356
3.510000	0.012824	0.043925	0.031101	-0.032764	-0.010553	0.043316
3.515000	-0.030840	0.033323	0.064163	-0.001434	-0.054850	0.056283
3.520000	-0.073820	0.022587	0.096406	0.029579	-0.098280	0.068700
3.525000	-0.113115	0.011798	0.124914	0.058495	-0.137426	0.078931
3.530000	-0.145850	0.001716	0.147566	0.083215	-0.169403	0.086188
3.535000	-0.170730	-0.006228	0.164502	0.102167	-0.193546	0.091379
3.540000	-0.187144	-0.010862	0.176283	0.114319	-0.209825	0.095506
3.545000	-0.194894	-0.012520	0.182374	0.119750	-0.217815	0.098065
3.550000	-0.194684	-0.011719	0.182966	0.119167	-0.218036	0.098870
3.555000	-0.187717	-0.009378	0.178340	0.113793	-0.211343	0.097550
3.560000	-0.175095	-0.006485	0.168610	0.104836	-0.198438	0.093602
3.565000	-0.156672	-0.002424	0.154248	0.091854	-0.179510	0.087655
3.570000	-0.131131	0.003909	0.135039	0.073452	-0.153673	0.080222
3.575000	-0.097948	0.012502	0.110450	0.049333	-0.120319	0.070986
3.580000	-0.058585	0.022819	0.081405	0.020649	-0.080823	0.060174
3.585000	-0.016256	0.034569	0.050825	-0.010574	-0.038729	0.049302
3.590000	0.025625	0.046261	0.020637	-0.041503	0.002880	0.038624
3.595000	0.064680	0.055965	-0.008714	-0.069655	0.042374	0.027280
3.600000	0.098310	0.063532	-0.034777	-0.093440	0.076838	0.016602
3.605000	0.122821	0.069111	-0.053709	-0.110812	0.101920	0.008892
3.610000	0.135258	0.071939	-0.063318	-0.119625	0.114648	0.004977
3.615000	0.135332	0.072626	-0.062706	-0.120065	0.114338	0.005727
3.620000	0.125843	0.072978	-0.052864	-0.114790	0.103177	0.011613
3.625000	0.111819	0.073713	-0.038106	-0.107117	0.086560	0.020557
3.630000	0.098572	0.074923	-0.023649	-0.100167	0.070564	0.029603
3.635000	0.089785	0.076856	-0.012928	-0.096210	0.059301	0.036909
3.640000	0.087154	0.079398	-0.007756	-0.096159	0.054797	0.041363
3.645000	0.090749	0.082343	-0.008405	-0.099935	0.057246	0.042688
3.650000	0.099824	0.086114	-0.013709	-0.107351	0.065548	0.041803
3.655000	0.113388	0.091156	-0.022232	-0.118094	0.078300	0.039794
3.660000	0.129955	0.097145	-0.032809	-0.131116	0.093972	0.037144
3.665000	0.147849	0.103464	-0.044384	-0.145095	0.110986	0.034110
3.670000	0.166016	0.109900	-0.056116	-0.159300	0.128248	0.031052
3.675000	0.184036	0.115561	-0.068474	-0.172972	0.145787	0.027186
3.680000	0.201558	0.119853	-0.081706	-0.185567	0.163542	0.022024
3.685000	0.218120	0.123824	-0.094295	-0.197421	0.180373	0.017048
3.690000	0.232994	0.127664	-0.105330	-0.208226	0.195332	0.012894
3.695000	0.245175	0.130211	-0.114964	-0.216729	0.207926	0.008803
3.700000	0.253110	0.130859	-0.122251	-0.221684	0.216714	0.004970
3.705000	0.255422	0.129383	-0.126040	-0.222167	0.220237	0.001930
3.710000	0.250641	0.125057	-0.125584	-0.216909	0.217214	-0.000304
3.715000	0.238457	0.117846	-0.120611	-0.205711	0.207308	-0.001597
3.720000	0.220554	0.108845	-0.111709	-0.190179	0.191832	-0.001653
3.725000	0.199371	0.099044	-0.100327	-0.172290	0.173031	-0.000741
3.730000	0.177893	0.089868	-0.088025	-0.154592	0.153528	0.001064
3.735000	0.158642	0.082750	-0.075892	-0.139368	0.135408	0.003959
3.740000	0.143648	0.077459	-0.066189	-0.127656	0.121149	0.006507
3.745000	0.134741	0.073310	-0.061430	-0.120118	0.113259	0.006859
3.750000	0.132910	0.070902	-0.062008	-0.117671	0.112536	0.005135
3.755000	0.137662	0.071477	-0.066185	-0.120746	0.117691	0.003056
3.760000	0.147509	0.074447	-0.073062	-0.128147	0.127347	0.000800
3.765000	0.161260	0.078442	-0.082818	-0.138392	0.140919	-0.002526
3.770000	0.177416	0.082527	-0.094889	-0.150078	0.157215	-0.007137
3.775000	0.193834	0.085493	-0.108341	-0.161269	0.174460	-0.013191
3.780000	0.208660	0.086865	-0.121796	-0.170622	0.190789	-0.020167
3.785000	0.220155	0.087578	-0.132577	-0.177670	0.203650	-0.025980
3.790000	0.225629	0.088088	-0.137541	-0.181124	0.209676	-0.028552
3.795000	0.223750	0.087944	-0.135806	-0.179957	0.207590	-0.027633
3.800000	0.217749	0.087512	-0.130237	-0.176243	0.200910	-0.024667
3.805000	0.214365	0.088321	-0.126044	-0.174756	0.196535	-0.021780
3.810000	0.219973	0.091592	-0.128381	-0.179882	0.201123	-0.021240
3.815000	0.237107	0.098180	-0.138927	-0.193578	0.217103	-0.023525
3.820000	0.264011	0.107902	-0.156108	-0.214724	0.242556	-0.027832
3.825000	0.297143	0.118777	-0.178365	-0.240132	0.274535	-0.034403
3.830000	0.334363	0.129557	-0.204807	-0.267844	0.311290	-0.043446
3.835000	0.374999	0.141004	-0.233995	-0.297914	0.351602	-0.053689
3.840000	0.418556	0.152864	-0.265691	-0.329909	0.395050	-0.065141
3.845000	0.463056	0.164118	-0.298938	-0.362099	0.439937	-0.077838
3.850000	0.504886	0.174234	-0.330652	-0.392090	0.482398	-0.090308
3.855000	0.540835	0.182917	-0.357918	-0.417859	0.518895	-0.101037
3.860000	0.569459	0.189415	-0.380044	-0.438136	0.548196	-0.110059
3.865000	0.590325	0.193485	-0.396840	-0.452533	0.569940	-0.117407
3.870000	0.603164	0.195895	-0.407268	-0.461336	0.583373	-0.122036
3.875000	0.608577	0.197079	-0.411498	-0.465146	0.588941	-0.123795
3.880000	0.607724	0.196382	-0.411342	-0.464250	0.588358	-0.124107
3.885000	0.601004	0.193679	-0.407326	-0.458810	0.582159	-0.123349
3.890000	0.587720	0.189155	-0.398565	-0.448528	0.569432	-0.120903
3.895000	0.566623	0.182827	-0.383796	-0.432695	0.548725	-0.116029
3.900000	0.536721	0.175321	-0.361400	-0.411097	0.518530	-0.107433
3.905000	0.498876	0.166465	-0.332411	-0.384135	0.479944	-0.095809
3.910000	0.456178	0.155758	-0.300421	-0.353301	0.436822	-0.083521
3.915000	0.412167	0.144126	-0.268041	-0.321176	0.392718	-0.071543
3.920000	0.368614	0.132895	-0.235719	-0.289546	0.348911	-0.059365
3.925000	0.325950	0.121990	-0.203960	-0.258618	0.305943	-0.047326
3.930000	0.283453	0.110721	-0.172732	-0.227577	0.263379	-0.035802
3.935000	0.239109	0.099731	-0.139378	-0.195629	0.218519	-0.022890
3.940000	0.191635	0.089375	-0.102259	-0.162241	0.169680	-0.007439
3.945000	0.141524	0.079118	-0.062406	-0.127387	0.117739	0.009648
3.950000	0.090603	0.069506	-0.021098	-0.092439	0.064491	0.027948
3.955000	0.042705	0.060743	0.018038	-0.059726	0.014242	0.045484
3.960000	0.001888	0.052437	0.050549	-0.031365	-0.028094	0.059459
3.965000	-0.028993	0.045200	0.074193	-0.009357	-0.059574	0.068931
3.970000	-0.048696	0.039927	0.088623	0.005062	-0.079281	0.074219
3.975000	-0.057345	0.037261	0.094607	0.011595	-0.087729	0.076134
3.980000	-0.054551	0.037080	0.091631	0.010087	-0.084399	0.074312
3.985000	-0.039449	0.039409	0.078858	0.000023	-0.068305	0.068281
3.990000	-0.012221	0.044178	0.056399	-0.018450	-0.039618	0.058068
3.995000	0.024321	0.050634	0.026314	-0.043275	-0.001151	0.044426
4.000000	0.064203	0.058326	-0.005877	-0.070742	0.040461	0.030282
4.005000	0.099937	0.066789	-0.033148	-0.096259	0.076837	0.019422
4.010000	0.126530	0.074223	-0.052307	-0.115904	0.103251	0.012653
4.015000	0.143483	0.079665	-0.063817	-0.128835	0.119685	0.009150
4.020000	0.153682	0.084293	-0.069389	-0.137395	0.128790	0.008605
4.025000	0.161452	0.089350	-0.072101	-0.144800	0.134842	0.009959
4.030000	0.170536	0.095318	-0.075218	-0.153490	0.141886	0.011605
4.035000	0.183294	0.102242	-0.081052	-0.164854	0.152621	0.012234
4.040000	0.199755	0.109429	-0.090326	-0.178507	0.167478	0.011029
4.045000	0.218741	0.116147	-0.102594	-0.193348	0.185523	0.007825
4.050000	0.239230	0.122804	-0.116426	-0.209021	0.205338	0.003683
4.055000	0.260739	0.129944	-0.130795	-0.225561	0.226052	-0.000491
4.060000	0.282840	0.137004	-0.145835	-0.242397	0.247496	-0.005099
4.065000	0.304476	0.143118	-0.161358	-0.258419	0.268949	-0.010531
4.070000	0.324057	0.148178	-0.175879	-0.272645	0.288638	-0.015994
4.075000	0.339963	0.151917	-0.188046	-0.283987	0.304846	-0.020859
4.080000	0.350659	0.153476	-0.197183	-0.291062	0.316297	-0.025235
4.085000	0.354551	0.153123	-0.201427	-0.293106	0.320994	-0.027888
4.090000	0.351076	0.151349	-0.199727	-0.290076	0.318006	-0.027931
4.095000	0.339762	0.147100	-0.192661	-0.281090	0.307395	-0.026305
4.100000	0.319863	0.139944	-0.179919	-0.265470	0.288549	-0.023079
4.105000	0.291464	0.130354	-0.161110	-0.243536	0.261294	-0.017757
4.110000	0.256236	0.118851	-0.137385	-0.216556	0.227257	-0.010701
4.115000	0.217417	0.106843	-0.110574	-0.187212	0.189366	-0.002154
4.120000	0.178423	0.095251	-0.083172	-0.158006	0.151032	0.006974
4.125000	0.142068	0.084239	-0.057829	-0.130658	0.115410	0.015248
4.130000	0.110428	0.073663	-0.036765	-0.106285	0.084982	0.021303
4.135000	0.084866	0.064604	-0.020262	-0.086296	0.060696	0.025601
4.140000	0.066957	0.058403	-0.008554	-0.072377	0.043597	0.028781
4.145000	0.058006	0.054710	-0.003296	-0.065076	0.035392	0.029684
4.150000	0.057748	0.052896	-0.004852	-0.063881	0.036142	0.027738
4.155000	0.064662	0.053265	-0.011397	-0.068085	0.043913	0.024172
4.160000	0.077206	0.055588	-0.021617	-0.076669	0.057055	0.019613
4.165000	0.093696	0.059144	-0.034552	-0.088242	0.074044	0.014198
4.170000	0.112132	0.063865	-0.048267	-0.101612	0.092607	0.009005
4.175000	0.130661	0.068815	-0.061846	-0.115168	0.111144	0.004024
4.180000	0.147111	0.073013	-0.074098	-0.127089	0.127715	-0.000626
4.185000	0.159495	0.076526	-0.082970	-0.136267	0.139987	-0.003720
4.190000	0.167716	0.079450	-0.088267	-0.142701	0.147792	-0.005090
4.195000	0.173724	0.081724	-0.092000	-0.147483	0.153416	-0.005933
4.200000	0.180092	0.084377	-0.095716	-0.152691	0.159238	-0.006547
4.205000	0.189078	0.088430	-0.100648	-0.160219	0.167273	-0.007054
4.210000	0.202845	0.094397	-0.108448	-0.171613	0.179725	-0.008113
4.215000	0.222546	0.102854	-0.119692	-0.187870	0.197591	-0.009721
4.220000	0.246851	0.113320	-0.133531	-0.207944	0.219613	-0.011669
4.225000	0.273887	0.124416	-0.149471	-0.229960	0.244425	-0.014465
4.230000	0.301650	0.135154	-0.166496	-0.252189	0.270285	-0.018096
4.235000	0.328362	0.145679	-0.182682	-0.273688	0.295051	-0.021364
4.240000	0.353468	0.155442	-0.198026	-0.293819	0.318405	-0.024586
4.245000	0.376923	0.163180	-0.213744	-0.311828	0.341022	-0.029193
4.250000	0.397999	0.168978	-0.229021	-0.327345	0.362010	-0.034665
4.255000	0.416178	0.173615	-0.242563	-0.340517	0.380324	-0.039807
4.260000	0.431720	0.177022	-0.254698	-0.351457	0.396303	-0.044846
4.265000	0.444206	0.179129	-0.265078	-0.359883	0.409505	-0.049623
4.270000	0.452330	0.180288	-0.272042	-0.365242	0.418216	-0.052974
4.275000	0.455161	0.180110	-0.275051	-0.366774	0.421588	-0.054814
4.280000	0.451546	0.177656	-0.273890	-0.363270	0.418831	-0.055561
4.285000	0.439687	0.172698	-0.266990	-0.353560	0.408000	-0.054439
4.290000	0.417907	0.165098	-0.252809	-0.336598	0.387238	-0.050640
4.295000	0.385545	0.153848	-0.231697	-0.311419	0.356365	-0.044946
4.300000	0.343438	0.139374	-0.204063	-0.278752	0.316100	-0.037348
4.305000	0.294036	0.124067	-0.169968	-0.241392	0.267893	-0.026501
4.310000	0.241224	0.109064	-0.132161	-0.202239	0.215574	-0.013335
4.315000	0.188260	0.094396	-0.093863	-0.163191	0.162884	0.000308
4.320000	0.136753	0.080619	-0.056134	-0.125499	0.111363	0.014136
4.325000	0.088628	0.067885	-0.020743	-0.090362	0.063145	0.027217
4.330000	0.047024	0.056576	0.009552	-0.059813	0.021634	0.038179
4.335000	0.015302	0.047751	0.032449	-0.036403	-0.009900	0.046303
4.340000	-0.004942	0.041962	0.046904	-0.021373	-0.029933	0.051306
4.345000	-0.013940	0.038596	0.052536	-0.014235	-0.038380	0.052615
4.350000	-0.013093	0.037363	0.050455	-0.014012	-0.036689	0.050702
4.355000	-0.004278	0.038687	0.042965	-0.019866	-0.027276	0.047141
4.360000	0.010234	0.041708	0.031474	-0.029989	-0.012263	0.042252
4.365000	0.029225	0.045282	0.016057	-0.043017	0.007603	0.035414
4.370000	0.052182	0.049777	-0.002405	-0.058867	0.031516	0.027350
4.375000	0.077703	0.054984	-0.022719	-0.076606	0.057978	0.018628
4.380000	0.103483	0.060419	-0.043064	-0.094629	0.084609	0.010020
4.385000	0.127951	0.066990	-0.060961	-0.112549	0.109068	0.003481
4.390000	0.152041	0.075236	-0.076804	-0.131218	0.132124	-0.000905
4.395000	0.178124	0.084510	-0.093614	-0.151632	0.156888	-0.005256
4.400000	0.207793	0.094537	-0.113255	-0.174550	0.185357	-0.010807
4.405000	0.240988	0.105139	-0.135849	-0.199836	0.217566	-0.017730
4.410000	0.276513	0.115353	-0.161160	-0.226244	0.252691	-0.026447
4.415000	0.313756	0.124880	-0.188876	-0.253246	0.290195	-0.036948
4.420000	0.351321	0.133656	-0.217665	-0.280001	0.328504	-0.048503
4.425000	0.387153	0.140911	-0.246242	-0.304878	0.365691	-0.060813
4.430000	0.419873	0.146271	-0.273601	-0.326863	0.400377	-0.073514
4.435000	0.448117	0.150323	-0.297794	-0.345510	0.430651	-0.085142
4.440000	0.470348	0.153292	-0.317056	-0.360059	0.454607	-0.094549
4.445000	0.485093	0.154704	-0.330389	-0.369387	0.470819	-0.101432
4.450000	0.491231	0.154408	-0.336823	-0.372760	0.478077	-0.105317
4.455000	0.489379	0.152822	-0.336558	-0.370775	0.476855	-0.106080
4.460000	0.481275	0.150236	-0.331039	-0.364603	0.468990	-0.104387
4.465000	0.468412	0.147168	-0.321244	-0.355405	0.455908	-0.100503
4.470000	0.452244	0.144350	-0.307894	-0.344444	0.438865	-0.094422
4.475000	0.432985	0.141014	-0.291971	-0.331398	0.418553	-0.087155
4.480000	0.409476	0.135629	-0.273847	-0.314717	0.394517	-0.079800
4.485000	0.381696	0.128217	-0.253479	-0.294399	0.366719	-0.072320
4.490000	0.351270	0.119558	-0.231712	-0.271833	0.336585	-0.064752
4.495000	0.320331	0.110740	-0.209590	-0.248879	0.305950	-0.057071
4.500000	0.290815	0.103720	-0.187095	-0.227784	0.275921	-0.048137
4.505000	0.263588	0.099136	-0.164452	-0.209419	0.247129	-0.037710
4.510000	0.238373	0.095643	-0.142731	-0.192844	0.220031	-0.027186
4.515000	0.214973	0.092250	-0.122724	-0.177375	0.194969	-0.017594
4.520000	0.193280	0.089198	-0.104083	-0.163089	0.171683	-0.008594
4.525000	0.172357	0.086625	-0.085732	-0.149523	0.149008	0.000515
4.530000	0.151325	0.084041	-0.067284	-0.135888	0.126214	0.009674
4.535000	0.128557	0.081110	-0.047447	-0.121051	0.101616	0.019435
4.540000	0.103364	0.077976	-0.025388	-0.104697	0.074335	0.030362
4.545000	0.077443	0.074893	-0.002550	-0.087951	0.046184	0.041767
4.550000	0.053312	0.072055	0.018743	-0.072381	0.019959	0.052422
4.555000	0.032812	0.068942	0.036130	-0.058748	-0.001915	0.060663
4.560000	0.017272	0.065128	0.047856	-0.047573	-0.017658	0.065232
4.565000	0.008044	0.062128	0.054084	-0.040514	-0.026581	0.067095
4.570000	0.006783	0.061823	0.055040	-0.039610	-0.027862	0.067471
4.575000	0.015544	0.064286	0.048742	-0.046090	-0.019167	0.065257
4.580000	0.035856	0.068780	0.032923	-0.060412	0.001693	0.058718
4.585000	0.066663	0.075101	0.008437	-0.081847	0.033617	0.048231
4.590000	0.103843	0.082526	-0.021318	-0.107600	0.072262	0.035339
4.595000	0.143481	0.089932	-0.053549	-0.134761	0.113755	0.021006
4.600000	0.183396	0.097647	-0.085749	-0.162260	0.155390	0.006869
4.605000	0.223247	0.106821	-0.116425	-0.190565	0.196109	-0.005545
4.610000	0.263308	0.117255	-0.146053	-0.219718	0.236344	-0.016626
4.615000	0.303695	0.128475	-0.175219	-0.249513	0.276501	-0.026988
4.620000	0.344104	0.140649	-0.203455	-0.279873	0.316133	-0.036261
4.625000	0.383012	0.152811	-0.230201	-0.309357	0.354038	-0.044681
4.630000	0.418432	0.163582	-0.254851	-0.336026	0.388720	-0.052694
4.635000	0.448844	0.172592	-0.276252	-0.358786	0.418634	-0.059848
4.640000	0.473375	0.180088	-0.293287	-0.377276	0.442632	-0.065356
4.645000	0.492338	0.185849	-0.306489	-0.391551	0.461203	-0.069652
4.650000	0.506256	0.189746	-0.316510	-0.401837	0.475024	-0.073187
4.655000	0.515723	0.191749	-0.323974	-0.408459	0.484799	-0.076341
4.660000	0.521089	0.191729	-0.329360	-0.411546	0.491007	-0.079461
4.665000	0.522070	0.190143	-0.331927	-0.411196	0.493056	-0.081859
4.670000	0.517601	0.187330	-0.330270	-0.406992	0.489518	-0.082527
4.675000	0.505970	0.182861	-0.323109	-0.397696	0.478668	-0.080972
4.680000	0.485227	0.176225	-0.309002	-0.381890	0.458548	-0.076658
4.685000	0.453469	0.167386	-0.286082	-0.358451	0.426980	-0.068529
4.690000	0.410185	0.156002	-0.254183	-0.326888	0.383573	-0.056685
4.695000	0.356884	0.141978	-0.214906	-0.288018	0.330123	-0.042105
4.700000	0.296763	0.125892	-0.170871	-0.244020	0.269988	-0.025969
4.705000	0.234274	0.109040	-0.125234	-0.198212	0.207562	-0.009350
4.710000	0.172701	0.092307	-0.080394	-0.153003	0.146124	0.006878
4.715000	0.113199	0.076260	-0.036939	-0.109384	0.086682	0.022702
4.720000	0.057191	0.061656	0.004465	-0.068617	0.030442	0.038175
4.725000	0.007818	0.049069	0.041250	-0.032844	-0.019302	0.052146
4.730000	-0.031294	0.038792	0.070085	-0.004329	-0.058531	0.062860
4.735000	-0.057876	0.031178	0.089054	0.015414	-0.084830	0.069416
4.740000	-0.072194	0.026000	0.098194	0.026670	-0.098373	0.071703
4.745000	-0.076295	0.023123	0.099418	0.030699	-0.101448	0.070749
4.750000	-0.072916	0.022797	0.095714	0.028936	-0.097359	0.068422
4.755000	-0.063881	0.024658	0.088539	0.022645	-0.087999	0.065354
4.760000	-0.049306	0.027813	0.077119	0.012409	-0.072992	0.060583
4.765000	-0.028377	0.032236	0.060612	-0.002228	-0.051378	0.053606
4.770000	-0.001150	0.038564	0.039714	-0.021601	-0.023593	0.045194
4.775000	0.031356	0.046599	0.015243	-0.045007	0.009302	0.035705
4.780000	0.067428	0.055725	-0.011703	-0.071102	0.045686	0.025416
4.785000	0.106141	0.066055	-0.040086	-0.099417	0.084424	0.014993
4.790000	0.147413	0.078123	-0.069290	-0.130213	0.125114	0.005100
4.795000	0.191167	0.091809	-0.099358	-0.163376	0.167734	-0.004358
4.800000	0.237488	0.106937	-0.130551	-0.198853	0.212487	-0.013634
4.805000	0.286634	0.123509	-0.163125	-0.236796	0.259668	-0.022872
4.810000	0.337963	0.140194	-0.197769	-0.276064	0.309305	-0.033241
4.815000	0.388726	0.155561	-0.233165	-0.314244	0.359049	-0.044805
4.820000	0.435345	0.168459	-0.266886	-0.348607	0.405433	-0.056827
4.825000	0.475719	0.178317	-0.297402	-0.377608	0.446362	-0.068754
4.830000	0.509046	0.185569	-0.323476	-0.401036	0.480657	-0.079621
4.835000	0.534553	0.190858	-0.343695	-0.418816	0.507056	-0.088240
4.840000	0.551793	0.194315	-0.357478	-0.430766	0.524968	-0.094202
4.845000	0.562080	0.195709	-0.366371	-0.437510	0.536041	-0.098531
4.850000	0.566918	0.195443	-0.371475	-0.440149	0.541781	-0.101632
4.855000	0.567037	0.194166	-0.372871	-0.439480	0.542656	-0.103175
4.860000	0.562777	0.192269	-0.370508	-0.435926	0.538832	-0.102907
4.865000	0.553515	0.189783	-0.363732	-0.429143	0.529572	-0.100429
4.870000	0.537636	0.186458	-0.351178	-0.418056	0.513156	-0.095101
4.875000	0.512772	0.180741	-0.332031	-0.400400	0.487747	-0.087347
4.880000	0.475715	0.170863	-0.304852	-0.373302	0.450660	-0.077358
4.885000	0.423613	0.156486	-0.267127	-0.334920	0.398799	-0.063879
4.890000	0.357365	0.138682	-0.218683	-0.286392	0.332581	-0.046189
4.895000	0.282675	0.119382	-0.163293	-0.232127	0.257479	-0.025352
4.900000	0.206460	0.100638	-0.105822	-0.177303	0.180296	-0.002993
4.905000	0.133529	0.083497	-0.050032	-0.125300	0.105979	0.019321
4.910000	0.066071	0.067519	0.001448	-0.077128	0.037310	0.039818
4.915000	0.006001	0.052327	0.046327	-0.033676	-0.023282	0.056958
4.920000	-0.044193	0.038880	0.083072	0.003067	-0.073476	0.070409
4.925000	-0.082299	0.028027	0.110325	0.031334	-0.111212	0.079878
4.930000	-0.107229	0.020069	0.127298	0.050322	-0.135404	0.085083
4.935000	-0.120010	0.015431	0.135441	0.060378	-0.147484	0.087106
4.940000	-0.123044	0.014055	0.137099	0.062925	-0.150193	0.087268
4.945000	-0.118910	0.014857	0.133767	0.060075	-0.145883	0.085808
4.950000	-0.108325	0.017377	0.125702	0.052509	-0.135116	0.082607
4.955000	-0.089840	0.022351	0.112191	0.038965	-0.116643	0.077678
4.960000	-0.061983	0.029731	0.091714	0.018621	-0.088737	0.070116
4.965000	-0.025789	0.039158	0.064947	-0.007719	-0.052386	0.060105
4.970000	0.015551	0.050471	0.034919	-0.038118	-0.011182	0.049300
4.975000	0.059639	0.062823	0.003185	-0.070703	0.032594	0.038109
4.980000	0.105220	0.075319	-0.029901	-0.104234	0.078013	0.026222
4.985000	0.151057	0.087793	-0.063265	-0.137900	0.123739	0.014161
4.990000	0.195619	0.099856	-0.095763	-0.170592	0.168230	0.002363
4.995000	0.237378	0.111650	-0.125728	-0.201511	0.209639	-0.008128
5.000000	0.275334	0.123776	-0.151558	-0.230427	0.246466	-0.016039
5.005000	0.308837	0.135801	-0.173036	-0.256712	0.278210	-0.021498
5.010000	0.336408	0.145873	-0.190535	-0.278445	0.304231	-0.025785
5.015000	0.356332	0.152615	-0.203716	-0.293841	0.323344	-0.029503
5.020000	0.368183	0.156152	-0.212031	-0.302725	0.334987	-0.032262
5.025000	0.372681	0.156549	-0.216132	-0.305551	0.339951	-0.034400
5.030000	0.371279	0.154005	-0.217275	-0.303273	0.339802	-0.036529
5.035000	0.365437	0.149915	-0.215522	-0.297539	0.335417	-0.037878
5.040000	0.356244	0.145535	-0.210709	-0.289702	0.327330	-0.037628
5.045000	0.344304	0.141283	-0.203021	-0.280354	0.315998	-0.035644
5.050000	0.329682	0.137140	-0.192542	-0.269520	0.301506	-0.031986
5.055000	0.311393	0.132260	-0.179133	-0.256143	0.283206	-0.027063
5.060000	0.288721	0.125394	-0.163326	-0.239089	0.260989	-0.021900
5.065000	0.261569	0.116498	-0.145071	-0.218276	0.234773	-0.016497
5.070000	0.231591	0.106805	-0.124786	-0.195373	0.205754	-0.010381
5.075000	0.202541	0.097580	-0.104961	-0.173275	0.177537	-0.004262
5.080000	0.177712	0.089626	-0.088086	-0.154348	0.153459	0.000889
5.085000	0.158439	0.083821	-0.074618	-0.139868	0.134555	0.005313
5.090000	0.145031	0.080227	-0.064804	-0.130052	0.121148	0.008905
5.095000	0.136981	0.078008	-0.058973	-0.124124	0.113134	0.010990
5.100000	0.132227	0.076742	-0.055485	-0.120648	0.108375	0.012273
5.105000	0.128305	0.075795	-0.052510	-0.117837	0.104393	0.013444
5.110000	0.122567	0.073816	-0.048750	-0.113382	0.098910	0.014472
5.115000	0.112175	0.070479	-0.041696	-0.105455	0.088838	0.016618
5.120000	0.095627	0.066403	-0.029224	-0.093548	0.072083	0.021466
5.125000	0.073116	0.061027	-0.012088	-0.077447	0.049193	0.028255
5.130000	0.047012	0.053871	0.006859	-0.058245	0.023183	0.035062
5.135000	0.020064	0.045838	0.025773	-0.038048	-0.003296	0.041345
5.140000	-0.005853	0.037698	0.043551	-0.018386	-0.028523	0.046909
5.145000	-0.029409	0.029968	0.059377	-0.000322	-0.051261	0.051583
5.150000	-0.050293	0.023803	0.074096	0.015294	-0.071816	0.056522
5.155000	-0.067988	0.019684	0.087672	0.027888	-0.089870	0.061982
5.160000	-0.081797	0.017156	0.098953	0.037321	-0.104356	0.067035
5.165000	-0.091570	0.016472	0.108042	0.043358	-0.115246	0.071888
5.170000	-0.096333	0.017820	0.114153	0.045329	-0.121524	0.076195
5.175000	-0.094693	0.020241	0.114934	0.042985	-0.121028	0.078043
5.180000	-0.085952	0.023649	0.109601	0.035971	-0.112903	0.076932
5.185000	-0.070212	0.028596	0.098808	0.024027	-0.097584	0.073556
5.190000	-0.048314	0.034850	0.083164	0.007773	-0.075909	0.068135
5.195000	-0.021028	0.042172	0.063200	-0.012207	-0.048629	0.060837
5.200000	0.011034	0.051338	0.040303	-0.036010	-0.016899	0.052909
5.205000	0.046138	0.062248	0.016110	-0.062577	0.017336	0.045240
5.210000	0.080977	0.072563	-0.008414	-0.088646	0.051610	0.037036
5.215000	0.113082	0.080507	-0.032574	-0.111769	0.084095	0.027674
5.220000	0.141266	0.086184	-0.055082	-0.131318	0.113362	0.017957
5.225000	0.165296	0.090429	-0.074867	-0.147643	0.138658	0.008985
5.230000	0.185239	0.093627	-0.091612	-0.161003	0.159840	0.001163
5.235000	0.201416	0.095519	-0.105897	-0.171435	0.177427	-0.005991
5.240000	0.214031	0.096037	-0.117994	-0.179018	0.191695	-0.012677
5.245000	0.223236	0.095149	-0.128087	-0.183819	0.202836	-0.019017
5.250000	0.228806	0.093581	-0.135225	-0.186130	0.210174	-0.024043
5.255000	0.229755	0.092068	-0.137688	-0.185805	0.212143	-0.026339
5.260000	0.225587	0.090111	-0.135476	-0.182268	0.208459	-0.026192
5.265000	0.216614	0.086951	-0.129663	-0.175264	0.199923	-0.024660
5.270000	0.203609	0.082416	-0.121193	-0.165137	0.187524	-0.022387
5.275000	0.187617	0.076338	-0.111278	-0.152394	0.172567	-0.020173
5.280000	0.169557	0.069402	-0.100155	-0.137963	0.155719	-0.017756
5.285000	0.149980	0.063331	-0.086649	-0.123155	0.136618	-0.013463
5.290000	0.129774	0.058269	-0.071505	-0.108566	0.116209	-0.007642
5.295000	0.110283	0.052723	-0.057561	-0.094112	0.096905	-0.002793
5.300000	0.093029	0.047226	-0.045804	-0.080976	0.080155	0.000821
5.305000	0.079174	0.043714	-0.035461	-0.070949	0.066184	0.004765
5.310000	0.069862	0.042431	-0.027431	-0.064833	0.056172	0.008660
5.315000	0.065650	0.043114	-0.022536	-0.062795	0.050914	0.011881
5.320000	0.065838	0.046011	-0.019827	-0.064576	0.049459	0.015117
5.325000	0.069939	0.050622	-0.019317	-0.069606	0.051532	0.018074
5.330000	0.078181	0.055942	-0.022239	-0.077436	0.057977	0.019459
5.335000	0.090269	0.061369	-0.028900	-0.087549	0.068803	0.018746
5.340000	0.105797	0.067536	-0.038261	-0.100074	0.083172	0.016902
5.345000	0.124322	0.074590	-0.049732	-0.114842	0.100490	0.014352
5.350000	0.144423	0.081824	-0.062599	-0.130623	0.119524	0.011099
5.355000	0.163108	0.088504	-0.074604	-0.145268	0.137243	0.008025
5.360000	0.177126	0.093742	-0.083384	-0.156386	0.150405	0.005980
5.365000	0.184156	0.097406	-0.086751	-0.162560	0.156408	0.006152
5.370000	0.183369	0.100308	-0.083061	-0.163780	0.153823	0.009957
5.375000	0.175793	0.102430	-0.073364	-0.160632	0.143851	0.016781
5.380000	0.163233	0.102860	-0.060372	-0.153629	0.129099	0.024530
5.385000	0.147904	0.101595	-0.046309	-0.144048	0.112129	0.031919
5.390000	0.132429	0.099028	-0.033401	-0.133632	0.095742	0.037890
5.395000	0.120196	0.095625	-0.024571	-0.124604	0.083581	0.041023
5.400000	0.114220	0.092620	-0.021600	-0.119419	0.078415	0.041004
5.405000	0.117198	0.091419	-0.025779	-0.120445	0.082548	0.037897
5.410000	0.131895	0.092702	-0.039193	-0.129671	0.098778	0.030894
5.415000	0.159869	0.097283	-0.062586	-0.148467	0.128435	0.020032
5.420000	0.199969	0.105596	-0.094373	-0.176418	0.169939	0.006480
5.425000	0.249626	0.117034	-0.132593	-0.211691	0.220674	-0.008983
5.430000	0.305694	0.130487	-0.175206	-0.251829	0.277648	-0.025818
5.435000	0.363729	0.144625	-0.219105	-0.293498	0.336499	-0.043001
5.440000	0.418781	0.158326	-0.260455	-0.333193	0.392157	-0.058964
5.445000	0.467110	0.170227	-0.296883	-0.367966	0.441091	-0.073125
5.450000	0.506390	0.179968	-0.326423	-0.396269	0.480825	-0.084556
5.455000	0.536103	0.187622	-0.348481	-0.417843	0.510715	-0.092872
5.460000	0.557271	0.192425	-0.364846	-0.432837	0.532384	-0.099547
5.465000	0.570997	0.194221	-0.376776	-0.441799	0.547197	-0.105398
5.470000	0.577860	0.194246	-0.383614	-0.445775	0.555107	-0.109332
5.475000	0.578769	0.193337	-0.385432	-0.445775	0.556681	-0.110906
5.480000	0.574749	0.191348	-0.383401	-0.442306	0.553188	-0.110882
5.485000	0.566321	0.188208	-0.378113	-0.435627	0.545269	-0.109642
5.490000	0.553092	0.184025	-0.369066	-0.425574	0.532408	-0.106833
5.495000	0.533718	0.178210	-0.355508	-0.411032	0.513395	-0.102363
5.500000	0.506256	0.170167	-0.336089	-0.390532	0.486328	-0.095795
5.505000	0.469045	0.159338	-0.309707	-0.362797	0.449613	-0.086816
5.510000	0.421853	0.145200	-0.276653	-0.327388	0.403283	-0.075895
5.515000	0.365904	0.128598	-0.237306	-0.285501	0.348263	-0.062763
5.520000	0.304071	0.111855	-0.192217	-0.240135	0.286532	-0.046397
5.525000	0.240692	0.096824	-0.143868	-0.194865	0.222025	-0.027161
5.530000	0.178744	0.083944	-0.094800	-0.151663	0.157931	-0.006267
5.535000	0.118217	0.072368	-0.045850	-0.110034	0.094724	0.015310
5.540000	0.058585	0.061192	0.002608	-0.069153	0.032318	0.036835
5.545000	0.002171	0.050168	0.047997	-0.030218	-0.026457	0.056675
5.550000	-0.047733	0.039872	0.087606	0.004539	-0.078138	0.073599
5.555000	-0.088106	0.031400	0.119506	0.032739	-0.119865	0.087125
5.560000	-0.116696	0.024808	0.141504	0.053051	-0.149072	0.096021
5.565000	-0.133728	0.019479	0.153207	0.065961	-0.165662	0.099701
5.570000	-0.141372	0.015690	0.157062	0.072562	-0.172300	0.099738
5.575000	-0.141753	0.013893	0.155645	0.073820	-0.171703	0.097883
5.580000	-0.135477	0.014367	0.149844	0.069923	-0.164730	0.094807
5.585000	-0.120907	0.017542	0.138448	0.059678	-0.149739	0.090061
5.590000	-0.095509	0.023328	0.118837	0.041673	-0.123753	0.082079
5.595000	-0.058760	0.031155	0.089915	0.015938	-0.085838	0.069900
5.600000	-0.012416	0.041022	0.053438	-0.016516	-0.038021	0.054537
5.605000	0.041338	0.053571	0.012233	-0.054796	0.016804	0.037992
5.610000	0.099888	0.068311	-0.031577	-0.097110	0.075902	0.021208
5.615000	0.160826	0.084491	-0.076335	-0.141634	0.136925	0.004709
5.620000	0.223222	0.101821	-0.121401	-0.187663	0.198968	-0.011305
5.625000	0.286495	0.119007	-0.167488	-0.234117	0.262107	-0.027991
5.630000	0.348722	0.134852	-0.213871	-0.279191	0.324813	-0.045622
5.635000	0.406617	0.149097	-0.257520	-0.320841	0.383439	-0.062598
5.640000	0.456604	0.161147	-0.295457	-0.356659	0.434203	-0.077544
5.645000	0.496351	0.170191	-0.326160	-0.384828	0.474877	-0.090049
5.650000	0.524923	0.176086	-0.348836	-0.404728	0.504465	-0.099737
5.655000	0.543067	0.179143	-0.363924	-0.416968	0.523651	-0.106683
5.660000	0.552680	0.179829	-0.372851	-0.422914	0.534355	-0.111441
5.665000	0.555354	0.178757	-0.376597	-0.423839	0.538062	-0.114223
5.670000	0.551996	0.176553	-0.375443	-0.420628	0.535457	-0.114829
5.675000	0.543240	0.172937	-0.370303	-0.413485	0.527434	-0.113950
5.680000	0.529664	0.167726	-0.361937	-0.402638	0.514766	-0.112128
5.685000	0.511401	0.161488	-0.349913	-0.388492	0.497279	-0.108787
5.690000	0.487484	0.154456	-0.333029	-0.370624	0.473723	-0.103099
5.695000	0.457017	0.146172	-0.310846	-0.348251	0.443326	-0.095075
5.700000	0.419503	0.136491	-0.283013	-0.321003	0.405598	-0.084595
5.705000	0.375112	0.125920	-0.249192	-0.289271	0.360442	-0.071171
5.710000	0.325009	0.114630	-0.210379	-0.253825	0.309106	-0.055281
5.715000	0.270311	0.102660	-0.167650	-0.215335	0.252857	-0.037522
5.720000	0.212451	0.090728	-0.121723	-0.175040	0.192936	-0.017895
5.725000	0.152888	0.079328	-0.073560	-0.134070	0.130740	0.003330
5.730000	0.092652	0.067818	-0.024834	-0.092648	0.067831	0.024817
5.735000	0.033694	0.056010	0.022316	-0.051791	0.006569	0.045222
5.740000	-0.019895	0.044949	0.064844	-0.014465	-0.048925	0.063389
5.745000	-0.064188	0.035307	0.099495	0.016675	-0.094502	0.077828
5.750000	-0.097646	0.027328	0.124974	0.040598	-0.128530	0.087932
5.755000	-0.121152	0.021777	0.142929	0.057374	-0.152467	0.095093
5.760000	-0.136195	0.018409	0.154604	0.068003	-0.167893	0.099889
5.765000	-0.143891	0.016403	0.160294	0.073605	-0.175621	0.102016
5.770000	-0.145056	0.015836	0.160892	0.074605	-0.176639	0.102034
5.775000	-0.138295	0.016819	0.155114	0.070134	-0.169400	0.099266
5.780000	-0.120897	0.019534	0.140431	0.058522	-0.150878	0.092356
5.785000	-0.091411	0.025116	0.116527	0.038275	-0.120053	0.081778
5.790000	-0.050389	0.033496	0.083885	0.009753	-0.077523	0.067770
5.795000	0.000466	0.044066	0.043599	-0.025710	-0.024903	0.050613
5.800000	0.058400	0.057303	-0.001097	-0.066801	0.034350	0.032451
5.805000	0.119969	0.073064	-0.046904	-0.111447	0.096344	0.015103
5.810000	0.182504	0.089871	-0.092632	-0.157256	0.158850	-0.001594
5.815000	0.244605	0.106491	-0.138115	-0.202705	0.220963	-0.018258
5.820000	0.304466	0.122195	-0.182272	-0.246333	0.281018	-0.034685
5.825000	0.359460	0.135896	-0.223564	-0.285994	0.336609	-0.050615
5.830000	0.406573	0.146296	-0.260277	-0.319199	0.385006	-0.065807
5.835000	0.443556	0.153093	-0.290464	-0.344475	0.423786	-0.079311
5.840000	0.469548	0.156613	-0.312936	-0.361514	0.451767	-0.090253
5.845000	0.485032	0.157380	-0.327652	-0.370896	0.469203	-0.098307
5.850000	0.491272	0.156100	-0.335172	-0.373760	0.477147	-0.103387
5.855000	0.489974	0.153363	-0.336612	-0.371431	0.477230	-0.105799
5.860000	0.482452	0.148842	-0.333610	-0.364477	0.471153	-0.106676
5.865000	0.469946	0.142895	-0.327051	-0.353824	0.460146	-0.106322
5.870000	0.453257	0.137014	-0.316243	-0.340793	0.444270	-0.103478
5.875000	0.432730	0.131715	-0.301015	-0.325883	0.423628	-0.097746
5.880000	0.408204	0.126691	-0.281514	-0.308822	0.398209	-0.089387
5.885000	0.379566	0.121772	-0.257794	-0.289447	0.367980	-0.078532
5.890000	0.346745	0.116667	-0.230078	-0.267551	0.333029	-0.065478
5.895000	0.310085	0.110151	-0.199934	-0.242623	0.294460	-0.051836
5.900000	0.270225	0.101655	-0.168570	-0.214705	0.253339	-0.038634
5.905000	0.228243	0.092204	-0.136039	-0.185010	0.210318	-0.025308
5.910000	0.186606	0.083227	-0.103379	-0.155788	0.167422	-0.011635
5.915000	0.147311	0.075952	-0.071359	-0.128901	0.126249	0.002652
5.920000	0.110680	0.070571	-0.040109	-0.104645	0.087058	0.017587
5.925000	0.075365	0.065736	-0.009629	-0.081465	0.049071	0.032394
5.930000	0.039756	0.059987	0.020232	-0.057587	0.011272	0.046315
5.935000	0.004135	0.053265	0.049130	-0.033140	-0.025978	0.059117
5.940000	-0.029422	0.046186	0.075608	-0.009679	-0.060639	0.070318
5.945000	-0.058249	0.039922	0.098171	0.010581	-0.090309	0.079728
5.950000	-0.080777	0.035798	0.116575	0.025969	-0.113941	0.087972
5.955000	-0.097428	0.033993	0.131421	0.036624	-0.132126	0.095502
5.960000	-0.109190	0.033030	0.142220	0.043971	-0.145151	0.101180
5.965000	-0.116309	0.031754	0.148063	0.048817	-0.152635	0.103817
5.970000	-0.117375	0.030540	0.147916	0.050134	-0.153166	0.103031
5.975000	-0.108879	0.030290	0.139169	0.045373	-0.143211	0.097837
5.980000	-0.087570	0.032332	0.119902	0.031891	-0.119784	0.087893
5.985000	-0.054202	0.038036	0.092238	0.009333	-0.084547	0.075213
5.990000	-0.014417	0.046984	0.061400	-0.018803	-0.043773	0.062575
5.995000	0.023151	0.056529	0.033378	-0.046003	-0.005904	0.051908
6.000000	0.051077	0.063676	0.012598	-0.066253	0.022216	0.044037
6.005000	0.065761	0.066647	0.000886	-0.076445	0.037455	0.038990
6.010000	0.067786	0.065200	-0.002586	-0.076779	0.040630	0.036150
6.015000	0.059568	0.060171	0.000604	-0.069131	0.034043	0.035089
6.020000	0.043810	0.053298	0.009488	-0.056066	0.019816	0.036250
6.025000	0.022843	0.045781	0.022938	-0.039620	-0.000055	0.039675
6.030000	-0.002208	0.037193	0.039401	-0.020198	-0.024023	0.044221
6.035000	-0.030785	0.027800	0.058585	0.001723	-0.051597	0.049874
6.040000	-0.061735	0.018224	0.079959	0.025121	-0.081807	0.056686
6.045000	-0.092733	0.009027	0.101760	0.048328	-0.112291	0.063963
6.050000	-0.120878	0.000741	0.121619	0.069361	-0.140006	0.070645
6.055000	-0.144677	-0.006301	0.138376	0.087167	-0.163421	0.076254
6.060000	-0.164035	-0.012278	0.151757	0.101794	-0.182322	0.080528
6.065000	-0.179476	-0.017055	0.162421	0.113467	-0.197394	0.083927
6.070000	-0.192008	-0.020206	0.171802	0.122522	-0.210046	0.087524
6.075000	-0.201445	-0.021827	0.179618	0.128906	-0.220007	0.091100
6.080000	-0.205879	-0.021550	0.184329	0.131306	-0.225287	0.093981
6.085000	-0.203205	-0.018515	0.184690	0.128010	-0.223951	0.095941
6.090000	-0.191945	-0.012907	0.179038	0.118271	-0.214187	0.095916
6.095000	-0.172042	-0.006240	0.165802	0.102931	-0.195054	0.092123
6.100000	-0.145219	0.000813	0.146032	0.083373	-0.168154	0.084781
6.105000	-0.114118	0.008450	0.122568	0.061007	-0.136651	0.075644
6.110000	-0.080418	0.016560	0.096979	0.036869	-0.102420	0.065552
6.115000	-0.044343	0.025282	0.069625	0.011005	-0.065799	0.054794
6.120000	-0.005436	0.035198	0.040634	-0.017183	-0.026599	0.043782
6.125000	0.037342	0.046988	0.009646	-0.048688	0.015990	0.032698
6.130000	0.084164	0.060488	-0.023676	-0.083514	0.062261	0.021253
6.135000	0.132867	0.074764	-0.058102	-0.119876	0.110256	0.009620
6.140000	0.179825	0.088221	-0.091605	-0.154756	0.156710	-0.001954
6.145000	0.221295	0.099667	-0.121629	-0.185307	0.197987	-0.012680
6.150000	0.253826	0.108523	-0.145303	-0.209202	0.230437	-0.021235
6.155000	0.274629	0.115444	-0.159185	-0.225209	0.250463	-0.025254
6.160000	0.283663	0.120362	-0.163302	-0.233264	0.258055	-0.024791
6.165000	0.282953	0.122508	-0.160445	-0.234093	0.255995	-0.021903
6.170000	0.274372	0.122358	-0.152014	-0.229052	0.246174	-0.017122
6.175000	0.258667	0.120240	-0.138427	-0.218762	0.229262	-0.010500
6.180000	0.236717	0.115983	-0.120735	-0.203631	0.206375	-0.002744
6.185000	0.211638	0.110339	-0.101299	-0.185893	0.180674	0.005219
6.190000	0.190348	0.104879	-0.085469	-0.170449	0.159243	0.011206
6.195000	0.181050	0.100763	-0.080287	-0.162705	0.150883	0.011822
6.200000	0.188192	0.099265	-0.088926	-0.165963	0.159994	0.005969
6.205000	0.210714	0.101346	-0.109368	-0.180168	0.184799	-0.004631
6.210000	0.244842	0.106579	-0.138263	-0.202893	0.221186	-0.018293
6.215000	0.285590	0.113425	-0.172166	-0.230371	0.264285	-0.033914
6.220000	0.326541	0.120422	-0.206118	-0.258054	0.307531	-0.049477
6.225000	0.361960	0.126148	-0.235812	-0.281809	0.345124	-0.063315
6.230000	0.388252	0.129670	-0.258582	-0.299022	0.373450	-0.074428
6.235000	0.404260	0.131352	-0.272909	-0.309236	0.390963	-0.081728
6.240000	0.410794	0.131674	-0.279120	-0.313194	0.398322	-0.085128
6.245000	0.409419	0.130830	-0.278589	-0.311912	0.397221	-0.085309
6.250000	0.401643	0.129398	-0.272246	-0.306597	0.389070	-0.082473
6.255000	0.389141	0.126902	-0.262239	-0.297938	0.376074	-0.078137
6.260000	0.373539	0.121873	-0.251665	-0.286026	0.360962	-0.074935
6.265000	0.355585	0.114394	-0.241191	-0.271342	0.344549	-0.073207
6.270000	0.335167	0.106373	-0.228794	-0.254923	0.325603	-0.070680
6.275000	0.312894	0.098830	-0.214064	-0.237709	0.304239	-0.066530
6.280000	0.289190	0.091404	-0.197787	-0.219736	0.281156	-0.061420
6.285000	0.263465	0.084369	-0.179095	-0.200822	0.255512	-0.054690
6.290000	0.235616	0.078280	-0.157336	-0.181228	0.226871	-0.045643
6.295000	0.207043	0.073229	-0.133814	-0.161815	0.196794	-0.034978
6.300000	0.179776	0.069659	-0.110117	-0.144011	0.167369	-0.023358
6.305000	0.155668	0.067759	-0.087909	-0.128995	0.140630	-0.011634
6.310000	0.135607	0.066641	-0.068966	-0.116768	0.118110	-0.001342
6.315000	0.118655	0.065246	-0.053410	-0.106175	0.099342	0.006834
6.320000	0.101437	0.063443	-0.037994	-0.095193	0.080500	0.014693
6.325000	0.081114	0.061333	-0.019781	-0.082241	0.058252	0.023990
6.330000	0.057889	0.058903	0.001014	-0.067430	0.032837	0.034593
6.335000	0.033525	0.056792	0.023267	-0.052145	0.005923	0.046222
6.340000	0.009380	0.055517	0.046137	-0.037468	-0.021222	0.058690
6.345000	-0.013330	0.054360	0.067690	-0.023688	-0.046777	0.070466
6.350000	-0.033541	0.052479	0.086020	-0.010934	-0.069029	0.079963
6.355000	-0.050649	0.049933	0.100583	0.000413	-0.087314	0.086900
6.360000	-0.063356	0.046488	0.109844	0.009738	-0.099997	0.090259
6.365000	-0.069363	0.042628	0.111990	0.015436	-0.104704	0.089269
6.370000	-0.066255	0.040366	0.106622	0.014947	-0.099811	0.084863
6.375000	-0.052012	0.041410	0.093422	0.006121	-0.083967	0.077846
6.380000	-0.026690	0.045826	0.072516	-0.011048	-0.057276	0.068325
6.385000	0.006295	0.053142	0.046847	-0.034316	-0.023413	0.057729
6.390000	0.041161	0.062466	0.021305	-0.059829	0.011464	0.048365
6.395000	0.071919	0.071516	-0.000403	-0.082812	0.041755	0.041057
6.400000	0.093554	0.078218	-0.015337	-0.099173	0.062868	0.036304
6.405000	0.103147	0.081378	-0.021769	-0.106536	0.072120	0.034415
6.410000	0.100337	0.080154	-0.020183	-0.104207	0.069582	0.034624
6.415000	0.086167	0.075188	-0.010979	-0.093159	0.056087	0.037071
6.420000	0.062733	0.068031	0.005298	-0.075497	0.033160	0.042337
6.425000	0.034268	0.059806	0.025538	-0.054313	0.005040	0.049273
6.430000	0.005529	0.051518	0.045988	-0.032936	-0.023359	0.056295
6.435000	-0.020773	0.044190	0.064964	-0.013520	-0.049500	0.063020
6.440000	-0.043593	0.037781	0.081373	0.003355	-0.072149	0.068794
6.445000	-0.062357	0.031340	0.093697	0.017908	-0.090098	0.072190
6.450000	-0.076937	0.025068	0.102005	0.029947	-0.103312	0.073366
6.455000	-0.088282	0.019818	0.108100	0.039527	-0.113381	0.073854
6.460000	-0.097391	0.015503	0.112894	0.047278	-0.121408	0.074130
6.465000	-0.104375	0.012032	0.116407	0.053314	-0.127469	0.074154
6.470000	-0.107596	0.009917	0.117512	0.056395	-0.129966	0.073571
6.475000	-0.104729	0.009410	0.114139	0.055032	-0.126364	0.071331
6.480000	-0.094109	0.010445	0.104554	0.048303	-0.114698	0.066395
6.485000	-0.075181	0.013810	0.088991	0.035432	-0.094785	0.059352
6.490000	-0.048542	0.020246	0.068788	0.016337	-0.067740	0.051403
6.495000	-0.015513	0.028895	0.044409	-0.007726	-0.034596	0.042322
6.500000	0.022120	0.039347	0.017227	-0.035488	0.002825	0.032663
6.505000	0.063075	0.051890	-0.011185	-0.066375	0.042874	0.023501
6.510000	0.106051	0.065596	-0.040455	-0.099100	0.084586	0.014515
6.515000	0.149407	0.079335	-0.070071	-0.132064	0.126716	0.005348
6.520000	0.191593	0.092127	-0.099466	-0.163806	0.168043	-0.004237
6.525000	0.230945	0.102963	-0.127982	-0.192781	0.207226	-0.014445
6.530000	0.266360	0.111520	-0.154840	-0.218169	0.243180	-0.025010
6.535000	0.296697	0.118111	-0.178586	-0.239489	0.274404	-0.034915
6.540000	0.320538	0.123455	-0.197084	-0.256339	0.298849	-0.042510
6.545000	0.336807	0.127921	-0.208886	-0.268311	0.315056	-0.046745
6.550000	0.344989	0.131103	-0.213886	-0.274872	0.322667	-0.047795
6.555000	0.345618	0.132127	-0.213491	-0.275826	0.322801	-0.046976
6.560000	0.340259	0.130699	-0.209559	-0.271908	0.317438	-0.045530
6.565000	0.330036	0.127750	-0.202286	-0.264302	0.307336	-0.043034
6.570000	0.315647	0.124079	-0.191568	-0.253876	0.292841	-0.038965
6.575000	0.297386	0.119773	-0.177613	-0.240847	0.274241	-0.033394
6.580000	0.274971	0.114351	-0.160621	-0.224775	0.251489	-0.026714
6.585000	0.248459	0.107759	-0.140700	-0.205662	0.224681	-0.019018
6.590000	0.218985	0.100021	-0.118963	-0.184178	0.195114	-0.010936
6.595000	0.188690	0.091283	-0.097407	-0.161642	0.165178	-0.003535
6.600000	0.160721	0.083259	-0.077462	-0.140862	0.137515	0.003347
6.605000	0.138162	0.077669	-0.060493	-0.124610	0.114693	0.009916
6.610000	0.123412	0.074506	-0.048906	-0.114268	0.099487	0.014781
6.615000	0.117960	0.073089	-0.044872	-0.110302	0.094011	0.016291
6.620000	0.122291	0.073176	-0.049116	-0.112853	0.098962	0.013891
6.625000	0.136907	0.074748	-0.062159	-0.122199	0.114931	0.007268
6.630000	0.161142	0.077669	-0.083473	-0.137877	0.141228	-0.003351
6.635000	0.191585	0.082180	-0.109405	-0.158058	0.173777	-0.015719
6.640000	0.223347	0.087976	-0.135371	-0.179742	0.207106	-0.027364
6.645000	0.252241	0.093864	-0.158377	-0.199824	0.237071	-0.037246
6.650000	0.275164	0.098266	-0.176898	-0.215600	0.260998	-0.045398
6.655000	0.290214	0.100528	-0.189686	-0.225595	0.277070	-0.051475
6.660000	0.297263	0.100734	-0.196529	-0.229783	0.285091	-0.055307
6.665000	0.296883	0.099010	-0.197873	-0.228569	0.285648	-0.057078
6.670000	0.289693	0.096365	-0.193328	-0.222890	0.278872	-0.055981
6.675000	0.277477	0.093377	-0.184099	-0.214113	0.266491	-0.052378
6.680000	0.262123	0.089768	-0.172355	-0.203164	0.250846	-0.047682
6.685000	0.244799	0.085473	-0.159326	-0.190682	0.233321	-0.042639
6.690000	0.226333	0.080363	-0.145970	-0.177071	0.214949	-0.037878
6.695000	0.206908	0.074255	-0.132653	-0.162330	0.196046	-0.033716
6.700000	0.186649	0.067431	-0.119218	-0.146694	0.176593	-0.029899
6.705000	0.165935	0.060841	-0.105094	-0.130929	0.156479	-0.025550
6.710000	0.145964	0.054930	-0.091035	-0.115986	0.136831	-0.020845
6.715000	0.128425	0.050269	-0.078155	-0.103169	0.119269	-0.016100
6.720000	0.114278	0.047873	-0.066405	-0.093618	0.104318	-0.010700
6.725000	0.104426	0.047712	-0.056714	-0.087837	0.093034	-0.005197
6.730000	0.099398	0.049398	-0.050000	-0.085908	0.086255	-0.000347
6.735000	0.098523	0.052609	-0.045913	-0.087256	0.083390	0.003866
6.740000	0.100433	0.056748	-0.043684	-0.090749	0.083206	0.007543
6.745000	0.103053	0.060652	-0.042401	-0.094515	0.083978	0.010537
6.750000	0.103528	0.063852	-0.039675	-0.096637	0.082678	0.013958
6.755000	0.099278	0.066669	-0.032609	-0.095809	0.076145	0.019664
6.760000	0.089890	0.068516	-0.021374	-0.091455	0.064238	0.027217
6.765000	0.076663	0.069078	-0.007586	-0.084144	0.048641	0.035503
6.770000	0.061205	0.069024	0.007819	-0.075188	0.030823	0.044365
6.775000	0.044776	0.068531	0.023755	-0.065418	0.012136	0.053282
6.780000	0.028152	0.066710	0.038558	-0.054769	-0.006008	0.060777
6.785000	0.012016	0.063696	0.051680	-0.043712	-0.022900	0.066612
6.790000	-0.001842	0.060524	0.062366	-0.033880	-0.037070	0.070950
6.795000	-0.010313	0.057942	0.068255	-0.027498	-0.045361	0.072860
6.800000	-0.010089	0.056610	0.066699	-0.026859	-0.044334	0.071193
6.805000	-0.000053	0.056756	0.056810	-0.032737	-0.032830	0.065568
6.810000	0.017473	0.058118	0.040645	-0.043642	-0.013378	0.057021
6.815000	0.036097	0.059677	0.023580	-0.055296	0.007227	0.048069
6.820000	0.047429	0.060202	0.012773	-0.062141	0.020008	0.042132
6.825000	0.045802	0.057819	0.012017	-0.059825	0.019505	0.040320
6.830000	0.030408	0.050909	0.020502	-0.046948	0.005719	0.041229
6.835000	0.004334	0.041251	0.036916	-0.026319	-0.018811	0.045130
6.840000	-0.028570	0.031143	0.059713	-0.001485	-0.050970	0.052456
6.845000	-0.066068	0.020444	0.086513	0.026341	-0.088093	0.061752
6.850000	-0.107488	0.009167	0.116654	0.056766	-0.129408	0.072643
6.855000	-0.151853	-0.001978	0.149875	0.088814	-0.174203	0.085388
6.860000	-0.195971	-0.012899	0.183073	0.120591	-0.218841	0.098250
6.865000	-0.235806	-0.022901	0.212905	0.149364	-0.259064	0.109699
6.870000	-0.268736	-0.030779	0.237957	0.172925	-0.292539	0.119614
6.875000	-0.293743	-0.036221	0.257522	0.190505	-0.318273	0.127768
6.880000	-0.310618	-0.039610	0.271007	0.202204	-0.335801	0.133597
6.885000	-0.319586	-0.041157	0.278430	0.208275	-0.345264	0.136990
6.890000	-0.321413	-0.041002	0.280412	0.209240	-0.347464	0.138223
6.895000	-0.317117	-0.039110	0.278007	0.205668	-0.343595	0.137927
6.900000	-0.306997	-0.035240	0.271757	0.197591	-0.334144	0.136553
6.905000	-0.290246	-0.029374	0.260873	0.184532	-0.318188	0.133656
6.910000	-0.265363	-0.022389	0.242975	0.166134	-0.293489	0.127355
6.915000	-0.231850	-0.014550	0.217300	0.142259	-0.259317	0.117058
6.920000	-0.191569	-0.004760	0.186810	0.113351	-0.218457	0.105107
6.925000	-0.148031	0.006486	0.154517	0.081721	-0.174676	0.092955
6.930000	-0.104025	0.017471	0.121496	0.049972	-0.130205	0.080232
6.935000	-0.060678	0.027976	0.088654	0.018880	-0.086217	0.067336
6.940000	-0.017998	0.038546	0.056544	-0.011863	-0.043037	0.054900
6.945000	0.025429	0.049160	0.023730	-0.043064	0.000981	0.042083
6.950000	0.071383	0.059570	-0.011813	-0.075606	0.048034	0.027572
6.955000	0.120177	0.070156	-0.050021	-0.109889	0.098264	0.011625
6.960000	0.170879	0.080513	-0.090366	-0.145141	0.150830	-0.005689
6.965000	0.220864	0.089859	-0.131005	-0.179396	0.203152	-0.023756
6.970000	0.265986	0.098540	-0.167445	-0.210459	0.250241	-0.039782
6.975000	0.302768	0.106435	-0.196333	-0.236253	0.288156	-0.051903
6.980000	0.329005	0.112724	-0.216281	-0.255032	0.314821	-0.059789
6.985000	0.343985	0.117035	-0.226950	-0.266170	0.329629	-0.063460
6.990000	0.347731	0.119149	-0.228583	-0.269553	0.332735	-0.063182
6.995000	0.339562	0.118580	-0.220982	-0.264509	0.323630	-0.059122
7.000000	0.318847	0.115294	-0.203553	-0.250651	0.301607	-0.050956
7.005000	0.286989	0.109585	-0.177404	-0.228962	0.268118	-0.039155
7.010000	0.249436	0.101699	-0.147737	-0.202728	0.229308	-0.026580
7.015000	0.214802	0.093489	-0.121313	-0.177992	0.194056	-0.016064
7.020000	0.190604	0.087546	-0.103058	-0.160589	0.169546	-0.008956
7.025000	0.179960	0.084027	-0.095932	-0.152413	0.159286	-0.006873
7.030000	0.181211	0.081568	-0.099643	-0.151715	0.162151	-0.010436
7.035000	0.189224	0.079519	-0.109705	-0.155159	0.172587	-0.017428
7.040000	0.198211	0.077702	-0.120509	-0.159299	0.184013	-0.024715
7.045000	0.203780	0.075671	-0.128109	-0.161341	0.191616	-0.030275
7.050000	0.203817	0.073194	-0.130623	-0.159932	0.193089	-0.033157
7.055000	0.198053	0.070014	-0.128039	-0.154769	0.188269	-0.033500
7.060000	0.187054	0.065824	-0.121230	-0.145999	0.177988	-0.031989
7.065000	0.172137	0.060263	-0.111873	-0.134176	0.163973	-0.029797
7.070000	0.155013	0.053839	-0.101174	-0.120581	0.147909	-0.027328
7.075000	0.137120	0.047288	-0.089832	-0.106468	0.131031	-0.024563
7.080000	0.119230	0.041161	-0.078069	-0.092602	0.113911	-0.021309
7.085000	0.101672	0.036429	-0.065243	-0.079733	0.096369	-0.016635
7.090000	0.084702	0.033106	-0.051596	-0.068017	0.078692	-0.010676
7.095000	0.068895	0.029915	-0.038980	-0.057048	0.062281	-0.005234
7.100000	0.055274	0.027069	-0.028205	-0.047541	0.048196	-0.000656
7.105000	0.045064	0.025457	-0.019607	-0.040715	0.037337	0.003378
7.110000	0.039600	0.025400	-0.014200	-0.037528	0.031061	0.006467
7.115000	0.040297	0.027555	-0.012742	-0.039174	0.030622	0.008552
7.120000	0.048417	0.032839	-0.015578	-0.046913	0.036947	0.009965
7.125000	0.063355	0.040831	-0.022524	-0.060152	0.049582	0.010569
7.130000	0.083127	0.050117	-0.033011	-0.076928	0.067052	0.009876
7.135000	0.105010	0.059355	-0.045656	-0.094896	0.086987	0.007909
7.140000	0.125870	0.067450	-0.058420	-0.111613	0.106399	0.005214
7.145000	0.143431	0.073843	-0.069588	-0.125443	0.122987	0.002457
7.150000	0.155774	0.078842	-0.076932	-0.135455	0.134353	0.001103
7.155000	0.161477	0.082705	-0.078772	-0.140978	0.138708	0.002271
7.160000	0.160204	0.084304	-0.075900	-0.141167	0.136314	0.004853
7.165000	0.153068	0.082951	-0.070117	-0.136266	0.128855	0.007410
7.170000	0.141413	0.079707	-0.061706	-0.127664	0.117271	0.010393
7.175000	0.126492	0.075719	-0.050773	-0.116746	0.102344	0.014403
7.180000	0.110194	0.072063	-0.038131	-0.105226	0.085635	0.019591
7.185000	0.094607	0.069900	-0.024707	-0.094978	0.068886	0.026092
7.190000	0.081206	0.069221	-0.011985	-0.086849	0.053804	0.033045
7.195000	0.072179	0.068822	-0.003356	-0.081407	0.043610	0.037797
7.200000	0.070285	0.068503	-0.001783	-0.080129	0.041608	0.038521
7.205000	0.075684	0.068782	-0.006902	-0.083407	0.047681	0.035726
7.210000	0.086018	0.069068	-0.016949	-0.089539	0.059448	0.030091
7.215000	0.098546	0.068772	-0.029774	-0.096601	0.074086	0.022515
7.220000	0.110550	0.068540	-0.042011	-0.103398	0.088081	0.015317
7.225000	0.119514	0.068087	-0.051427	-0.108311	0.098693	0.009619
7.230000	0.123532	0.066118	-0.057414	-0.109495	0.104469	0.005025
7.235000	0.121438	0.062239	-0.059199	-0.106046	0.104291	0.001755
7.240000	0.113077	0.056715	-0.056362	-0.098029	0.097826	0.000203
7.245000	0.098925	0.049916	-0.049008	-0.085933	0.085409	0.000524
7.250000	0.080904	0.042917	-0.037987	-0.071488	0.068642	0.002847
7.255000	0.060992	0.036457	-0.024535	-0.056262	0.049379	0.006883
7.260000	0.040611	0.030244	-0.010367	-0.040908	0.029432	0.011476
7.265000	0.020759	0.024316	0.003557	-0.026024	0.009932	0.016092
7.270000	0.001600	0.018663	0.017063	-0.011699	-0.008927	0.020626
7.275000	-0.016833	0.013279	0.030112	0.002052	-0.027104	0.025052
7.280000	-0.034135	0.008440	0.042574	0.014835	-0.044288	0.029453
7.285000	-0.049303	0.004578	0.053881	0.025822	-0.059573	0.033751
7.290000	-0.061015	0.002144	0.063159	0.033989	-0.071692	0.037703
7.295000	-0.067490	0.001221	0.068711	0.038260	-0.078636	0.040375
7.300000	-0.067504	0.001780	0.069284	0.037946	-0.078975	0.041028
7.305000	-0.060493	0.004455	0.064948	0.032353	-0.072423	0.040070
7.310000	-0.045339	0.009820	0.055158	0.020507	-0.058022	0.037515
7.315000	-0.021491	0.017675	0.039166	0.002203	-0.035020	0.032817
7.320000	0.010299	0.028010	0.017711	-0.022117	-0.004279	0.026397
7.325000	0.047699	0.039873	-0.007826	-0.050560	0.032057	0.018502
7.330000	0.087181	0.051989	-0.035192	-0.080350	0.070652	0.009697
7.335000	0.125407	0.064113	-0.061295	-0.109419	0.107792	0.001627
7.340000	0.159862	0.075554	-0.084308	-0.135917	0.140972	-0.005055
7.345000	0.188962	0.085280	-0.103682	-0.158334	0.168958	-0.010624
7.350000	0.211340	0.092470	-0.118869	-0.175405	0.190646	-0.015241
7.355000	0.225193	0.097270	-0.127924	-0.186174	0.203872	-0.017698
7.360000	0.229853	0.099957	-0.129896	-0.190416	0.207701	-0.017285
7.365000	0.226442	0.100694	-0.125748	-0.188872	0.203337	-0.014465
7.370000	0.216693	0.099651	-0.117042	-0.182641	0.192682	-0.010040
7.375000	0.202194	0.096618	-0.105577	-0.172519	0.177692	-0.005173
7.380000	0.184588	0.091641	-0.092947	-0.159481	0.160235	-0.000754
7.385000	0.165506	0.086399	-0.079107	-0.145437	0.141227	0.004210
7.390000	0.147537	0.082012	-0.065525	-0.132530	0.123012	0.009518
7.395000	0.133168	0.078179	-0.054988	-0.122021	0.108632	0.013389
7.400000	0.122791	0.074837	-0.047954	-0.114101	0.098579	0.015521
7.405000	0.114680	0.072118	-0.042562	-0.107848	0.090783	0.017065
7.410000	0.106401	0.068960	-0.037441	-0.101245	0.083047	0.018198
7.415000	0.095745	0.064178	-0.031567	-0.092332	0.073504	0.018828
7.420000	0.080187	0.057118	-0.023069	-0.079273	0.059615	0.019658
7.425000	0.058918	0.047831	-0.011086	-0.061632	0.040417	0.021215
7.430000	0.033573	0.037165	0.003591	-0.040840	0.017310	0.023530
7.435000	0.005999	0.026370	0.020371	-0.018688	-0.008298	0.026986
7.440000	-0.021917	0.016066	0.037983	0.003378	-0.034583	0.031205
7.445000	-0.048584	0.006056	0.054639	0.024553	-0.059596	0.035042
7.450000	-0.073501	-0.002893	0.070608	0.044106	-0.083201	0.039095
7.455000	-0.096419	-0.009922	0.086497	0.061396	-0.105606	0.044210
7.460000	-0.116814	-0.015417	0.101396	0.076344	-0.125984	0.049640
7.465000	-0.134590	-0.019906	0.114684	0.089198	-0.143918	0.054720
7.470000	-0.149794	-0.023093	0.126702	0.099816	-0.159635	0.059819
7.475000	-0.161409	-0.025007	0.136402	0.107627	-0.171941	0.064314
7.480000	-0.168088	-0.026285	0.141803	0.112221	-0.178915	0.066694
7.485000	-0.169049	-0.026338	0.142711	0.112807	-0.179995	0.067188
7.490000	-0.162919	-0.023974	0.138945	0.107902	-0.174281	0.066379
7.495000	-0.147919	-0.018782	0.129136	0.096245	-0.159958	0.063713
7.500000	-0.122748	-0.010079	0.112669	0.076688	-0.135918	0.059230
7.505000	-0.087313	0.002664	0.089977	0.048872	-0.102358	0.053486
7.510000	-0.042810	0.017895	0.060705	0.014385	-0.059765	0.045380
7.515000	0.007937	0.033075	0.025138	-0.023679	-0.009931	0.033610
7.520000	0.061109	0.047599	-0.013510	-0.062763	0.043081	0.019681
7.525000	0.114022	0.061794	-0.052227	-0.101507	0.095984	0.005524
7.530000	0.165027	0.075414	-0.089613	-0.138819	0.147017	-0.008198
7.535000	0.211876	0.088086	-0.123790	-0.173183	0.193796	-0.020614
7.540000	0.251157	0.099034	-0.152124	-0.202183	0.232834	-0.030651
7.545000	0.279766	0.107170	-0.172597	-0.223397	0.261172	-0.037774
7.550000	0.296595	0.112487	-0.184108	-0.236183	0.277534	-0.041350
7.555000	0.302423	0.115917	-0.186506	-0.241528	0.282283	-0.040754
7.560000	0.298939	0.117123	-0.181815	-0.240213	0.277563	-0.037350
7.565000	0.288194	0.115529	-0.172665	-0.233089	0.266077	-0.032988
7.570000	0.272214	0.112299	-0.159915	-0.221999	0.249490	-0.027491
7.575000	0.251811	0.108429	-0.143383	-0.207985	0.228165	-0.020181
7.580000	0.227674	0.103302	-0.124373	-0.191089	0.203254	-0.012165
7.585000	0.201614	0.097377	-0.104237	-0.172622	0.176583	-0.003961
7.590000	0.176002	0.091392	-0.084610	-0.154380	0.150464	0.003916
7.595000	0.151732	0.084898	-0.066834	-0.136618	0.126189	0.010429
7.600000	0.127259	0.076890	-0.050369	-0.117866	0.102553	0.015312
7.605000	0.099846	0.066810	-0.033036	-0.096219	0.076719	0.019500
7.610000	0.067222	0.054257	-0.012965	-0.070136	0.046296	0.023840
7.615000	0.028932	0.039878	0.010946	-0.039727	0.010384	0.029343
7.620000	-0.013872	0.025654	0.039525	-0.006802	-0.030829	0.037631
7.625000	-0.059059	0.012488	0.071547	0.026888	-0.075406	0.048518
7.630000	-0.103440	-0.000045	0.103395	0.059747	-0.119416	0.059669
7.635000	-0.143014	-0.011320	0.131694	0.089105	-0.158602	0.069498
7.640000	-0.174782	-0.020175	0.154607	0.112559	-0.190173	0.077614
7.645000	-0.197843	-0.026748	0.171095	0.129668	-0.213007	0.083339
7.650000	-0.212350	-0.031135	0.181215	0.140576	-0.227225	0.086649
7.655000	-0.219497	-0.033734	0.185763	0.146203	-0.233977	0.087774
7.660000	-0.220781	-0.034956	0.185825	0.147650	-0.234754	0.087104
7.665000	-0.217565	-0.034645	0.182920	0.145614	-0.231220	0.085606
7.670000	-0.210469	-0.032125	0.178344	0.140061	-0.224481	0.084420
7.675000	-0.197675	-0.026748	0.170927	0.129571	-0.212812	0.083242
7.680000	-0.176517	-0.019289	0.157228	0.113049	-0.192687	0.079639
7.685000	-0.146041	-0.010043	0.135997	0.090115	-0.162835	0.072719
7.690000	-0.108002	0.000697	0.108700	0.061953	-0.125113	0.063160
7.695000	-0.065828	0.012010	0.077837	0.031072	-0.082945	0.051873
7.700000	-0.023193	0.023708	0.046901	-0.000297	-0.040469	0.040766
7.705000	0.017487	0.036042	0.018555	-0.030905	-0.000617	0.031522
7.710000	0.055820	0.048508	-0.007312	-0.060234	0.036449	0.023785
7.715000	0.091675	0.060145	-0.031531	-0.087653	0.071133	0.016520
7.720000	0.124514	0.070469	-0.054045	-0.112573	0.103091	0.009483
7.725000	0.155182	0.079476	-0.075706	-0.135480	0.133303	0.002177
7.730000	0.185654	0.087551	-0.098103	-0.157735	0.163827	-0.006092
7.735000	0.217706	0.096032	-0.121674	-0.181136	0.195941	-0.014804
7.740000	0.252806	0.105805	-0.147002	-0.207044	0.230829	-0.023785
7.745000	0.291278	0.115942	-0.175336	-0.235108	0.269400	-0.034291
7.750000	0.331261	0.125638	-0.205623	-0.263791	0.309970	-0.046179
7.755000	0.369725	0.134513	-0.235212	-0.291122	0.349261	-0.058139
7.760000	0.403629	0.141825	-0.261804	-0.314918	0.384188	-0.069270
7.765000	0.431014	0.147402	-0.283612	-0.333949	0.412590	-0.078641
7.770000	0.451400	0.151503	-0.299897	-0.348086	0.433761	-0.085675
7.775000	0.464764	0.154048	-0.310716	-0.357271	0.447723	-0.090453
7.780000	0.471170	0.154765	-0.316405	-0.361383	0.454706	-0.093323
7.785000	0.470927	0.154567	-0.316360	-0.361129	0.454540	-0.093411
7.790000	0.464090	0.153210	-0.310880	-0.356398	0.447429	-0.091031
7.795000	0.450084	0.149099	-0.300985	-0.345939	0.433630	-0.087691
7.800000	0.428073	0.142304	-0.285769	-0.329307	0.412136	-0.082829
7.805000	0.397565	0.133748	-0.263817	-0.306753	0.381849	-0.075095
7.810000	0.359789	0.123757	-0.236032	-0.279175	0.343997	-0.064822
7.815000	0.317239	0.112673	-0.204566	-0.248210	0.301264	-0.053054
7.820000	0.272541	0.100932	-0.171609	-0.215625	0.256430	-0.040805
7.825000	0.228317	0.089001	-0.139315	-0.183203	0.212252	-0.029049
7.830000	0.186352	0.077041	-0.109311	-0.152070	0.170701	-0.018631
7.835000	0.146646	0.065582	-0.081064	-0.122530	0.131469	-0.008939
7.840000	0.108106	0.055181	-0.052925	-0.094274	0.092971	0.001302
7.845000	0.069751	0.045391	-0.024360	-0.066477	0.054335	0.012142
7.850000	0.031483	0.035935	0.004452	-0.038924	0.015606	0.023318
7.855000	-0.006592	0.027191	0.033783	-0.011893	-0.023311	0.035203
7.860000	-0.044977	0.018889	0.063866	0.015062	-0.062841	0.047779
7.865000	-0.082761	0.011153	0.093915	0.041343	-0.102004	0.060661
7.870000	-0.118158	0.004504	0.122662	0.065618	-0.139037	0.073419
7.875000	-0.149846	-0.001119	0.148727	0.087159	-0.172381	0.085222
7.880000	-0.176434	-0.005748	0.170687	0.105183	-0.200410	0.095227
7.885000	-0.196582	-0.008629	0.187954	0.118479	-0.222012	0.103533
7.890000	-0.208905	-0.009214	0.199691	0.125931	-0.235902	0.109972
7.895000	-0.212786	-0.007710	0.205075	0.127304	-0.241252	0.113949
7.900000	-0.209208	-0.004803	0.204405	0.123559	-0.238799	0.115240
7.905000	-0.199624	-0.001289	0.198334	0.115997	-0.229761	0.113764
7.910000	-0.185410	0.001633	0.187043	0.106104	-0.215036	0.108932
7.915000	-0.168114	0.003982	0.172096	0.094762	-0.196420	0.101658
7.920000	-0.147763	0.007527	0.155291	0.080965	-0.174968	0.094003
7.925000	-0.123228	0.013236	0.136464	0.063504	-0.149933	0.086429
7.930000	-0.094917	0.020786	0.115703	0.042799	-0.121601	0.078802
7.935000	-0.064540	0.029784	0.094325	0.020066	-0.091721	0.071654
7.940000	-0.033960	0.038414	0.072374	-0.002571	-0.061392	0.063963
7.945000	-0.004916	0.044499	0.049415	-0.022853	-0.031368	0.054222
7.950000	0.021873	0.048364	0.026491	-0.040551	-0.002666	0.043217
7.955000	0.046666	0.051705	0.005039	-0.056794	0.024033	0.032761
7.960000	0.069446	0.054956	-0.014490	-0.071824	0.048461	0.023363
7.965000	0.090506	0.057638	-0.032867	-0.085531	0.071229	0.014301
7.970000	0.110862	0.059926	-0.050935	-0.098605	0.093414	0.005191
7.975000	0.131654	0.062317	-0.069337	-0.111990	0.116042	-0.004053
7.980000	0.154789	0.065059	-0.089730	-0.126929	0.141173	-0.014243
7.985000	0.180378	0.068281	-0.112098	-0.143563	0.168861	-0.025298
7.990000	0.206106	0.071443	-0.134663	-0.160242	0.196743	-0.036500
7.995000	0.229503	0.074168	-0.155335	-0.175325	0.222186	-0.046861
8.000000	0.248867	0.077029	-0.171838	-0.188156	0.242894	-0.054738
8.005000	0.262766	0.080165	-0.182601	-0.197992	0.257133	-0.059141
8.010000	0.269692	0.082061	-0.187631	-0.203084	0.264035	-0.060951
8.015000	0.268085	0.081441	-0.186644	-0.201799	0.262538	-0.060739
8.020000	0.256120	0.078698	-0.177422	-0.193307	0.250305	-0.056998
8.025000	0.232794	0.074257	-0.158537	-0.177276	0.225935	-0.048659
8.030000	0.200054	0.068118	-0.131936	-0.154829	0.191675	-0.036846
8.035000	0.162141	0.061280	-0.100861	-0.128992	0.151844	-0.022852
8.040000	0.122459	0.054244	-0.068215	-0.102019	0.110086	-0.008066
8.045000	0.082587	0.046086	-0.036501	-0.074290	0.068756	0.005534
8.050000	0.042431	0.036204	-0.006227	-0.045400	0.028093	0.017307
8.055000	0.001737	0.025333	0.023596	-0.015629	-0.012620	0.028249
8.060000	-0.039432	0.013458	0.052891	0.014996	-0.053303	0.038307
8.065000	-0.080370	0.000848	0.081218	0.045912	-0.093293	0.047381
8.070000	-0.119157	-0.011074	0.108083	0.075189	-0.131197	0.056008
8.075000	-0.153766	-0.021509	0.132257	0.101195	-0.165136	0.063940
8.080000	-0.182831	-0.030397	0.152433	0.123107	-0.193565	0.070458
8.085000	-0.205971	-0.037587	0.168385	0.140618	-0.216134	0.075516
8.090000	-0.223700	-0.042996	0.180704	0.153977	-0.233482	0.079506
8.095000	-0.236504	-0.046600	0.189905	0.163450	-0.246187	0.082737
8.100000	-0.244949	-0.048030	0.196920	0.169151	-0.255113	0.085962
8.105000	-0.249269	-0.047349	0.201920	0.171252	-0.260494	0.089242
8.110000	-0.248951	-0.045283	0.203669	0.169876	-0.261320	0.091444
8.115000	-0.242531	-0.042108	0.200423	0.164336	-0.255739	0.091403
8.120000	-0.228180	-0.037240	0.190940	0.153240	-0.241979	0.088739
8.125000	-0.204060	-0.030338	0.173722	0.135330	-0.218112	0.082783
8.130000	-0.168733	-0.021203	0.147530	0.109659	-0.182595	0.072935
8.135000	-0.122401	-0.009230	0.113172	0.075997	-0.136008	0.060011
8.140000	-0.066999	0.005316	0.072314	0.035613	-0.080432	0.044820
8.145000	-0.006047	0.021465	0.027512	-0.008902	-0.019375	0.028277
8.150000	0.056136	0.038168	-0.017969	-0.054446	0.042785	0.011662
8.155000	0.117048	0.054802	-0.062246	-0.099218	0.103516	-0.004298
8.160000	0.175766	0.070839	-0.104926	-0.142377	0.162057	-0.019680
8.165000	0.230344	0.085215	-0.145129	-0.182188	0.216779	-0.034591
8.170000	0.277260	0.097134	-0.180126	-0.216157	0.264072	-0.047916
8.175000	0.313104	0.106266	-0.206839	-0.242123	0.300189	-0.058066
8.180000	0.336249	0.112730	-0.223519	-0.259218	0.323182	-0.063964
8.185000	0.347406	0.117022	-0.230384	-0.268137	0.333587	-0.065450
8.190000	0.348894	0.118911	-0.229984	-0.270087	0.334215	-0.064128
8.195000	0.343480	0.118168	-0.225312	-0.266533	0.328392	-0.061859
8.200000	0.332561	0.115804	-0.216757	-0.258863	0.317149	-0.058285
8.205000	0.315766	0.112487	-0.203280	-0.247252	0.299671	-0.052419
8.210000	0.291629	0.107235	-0.184394	-0.230284	0.274832	-0.044548
8.215000	0.259398	0.099374	-0.160024	-0.207136	0.242153	-0.035017
8.220000	0.220394	0.089532	-0.130862	-0.178936	0.202798	-0.023862
8.225000	0.176817	0.078289	-0.098528	-0.147285	0.158970	-0.011685
8.230000	0.130397	0.065330	-0.065067	-0.113003	0.112851	0.000152
8.235000	0.082225	0.050722	-0.031503	-0.076757	0.065661	0.011096
8.240000	0.032482	0.034744	0.002262	-0.038813	0.017447	0.021366
8.245000	-0.018976	0.017529	0.036504	0.000835	-0.032031	0.031196
8.250000	-0.071442	0.000335	0.071776	0.041053	-0.082687	0.041633
8.255000	-0.122436	-0.015190	0.107246	0.079458	-0.132607	0.053149
8.260000	-0.168844	-0.028024	0.140819	0.113662	-0.178784	0.065122
8.265000	-0.208779	-0.038230	0.170549	0.142610	-0.219005	0.076395
8.270000	-0.241564	-0.045896	0.195668	0.165965	-0.252436	0.086471
8.275000	-0.266614	-0.050868	0.215745	0.183298	-0.278490	0.095192
8.280000	-0.283565	-0.053753	0.229812	0.194750	-0.296399	0.101648
8.285000	-0.293661	-0.054952	0.238709	0.201272	-0.307364	0.106092
8.290000	-0.298365	-0.054656	0.243709	0.203817	-0.312967	0.109150
8.295000	-0.298235	-0.053466	0.244769	0.203055	-0.313504	0.110449
8.300000	-0.293374	-0.051965	0.241409	0.199381	-0.308757	0.109375
8.305000	-0.283218	-0.049710	0.233508	0.192216	-0.298331	0.106115
8.310000	-0.266304	-0.046168	0.220137	0.180406	-0.280847	0.100441
8.315000	-0.240236	-0.040086	0.200150	0.161844	-0.254257	0.092413
8.320000	-0.202816	-0.029807	0.173009	0.134305	-0.216983	0.082678
8.325000	-0.154090	-0.015355	0.138735	0.097829	-0.169063	0.071233
8.330000	-0.095773	0.001306	0.097079	0.054541	-0.111343	0.056802
8.335000	-0.031081	0.018223	0.049304	0.007423	-0.046410	0.038987
8.340000	0.035926	0.034261	-0.001664	-0.040523	0.021703	0.018820
8.345000	0.101935	0.048887	-0.053048	-0.087078	0.089480	-0.002402
8.350000	0.165321	0.062884	-0.102437	-0.131754	0.154590	-0.022836
8.355000	0.225279	0.077083	-0.148196	-0.174568	0.215626	-0.041057
8.360000	0.279693	0.090915	-0.188778	-0.213970	0.270472	-0.056501
8.365000	0.325375	0.103220	-0.222156	-0.247449	0.316117	-0.068668
8.370000	0.359385	0.113399	-0.245986	-0.272962	0.349511	-0.076549
8.375000	0.380575	0.120615	-0.259960	-0.289363	0.369813	-0.080451
8.380000	0.390205	0.124240	-0.265965	-0.297015	0.378840	-0.081825
8.385000	0.390844	0.124684	-0.266159	-0.297640	0.379321	-0.081681
8.390000	0.384861	0.123137	-0.261724	-0.293293	0.373306	-0.080013
8.395000	0.372244	0.119650	-0.252594	-0.283995	0.360750	-0.076756
8.400000	0.351132	0.113953	-0.237179	-0.268517	0.339662	-0.071145
8.405000	0.320516	0.106213	-0.214303	-0.246372	0.308778	-0.062406
8.410000	0.282128	0.096210	-0.185918	-0.218434	0.270226	-0.051793
8.415000	0.238467	0.084181	-0.154286	-0.186281	0.226756	-0.040475
8.420000	0.190345	0.070862	-0.119483	-0.150808	0.178879	-0.028071
8.425000	0.137812	0.056251	-0.081561	-0.112042	0.126655	-0.014613
8.430000	0.081619	0.040663	-0.040956	-0.070599	0.070768	-0.000169
8.435000	0.022563	0.024560	0.001997	-0.027206	0.011874	0.015332
8.440000	-0.038147	0.008447	0.046594	0.017147	-0.048925	0.031778
8.445000	-0.097812	-0.007000	0.090812	0.060513	-0.108902	0.048389
8.450000	-0.153039	-0.021056	0.131983	0.100514	-0.164557	0.064044
8.455000	-0.201138	-0.032702	0.168436	0.135007	-0.213374	0.078366
8.460000	-0.240100	-0.042010	0.198090	0.162876	-0.252989	0.090113
8.465000	-0.269472	-0.049326	0.220146	0.184058	-0.282681	0.098623
8.470000	-0.290172	-0.054141	0.236031	0.198789	-0.303803	0.105014
8.475000	-0.303078	-0.056487	0.246591	0.207595	-0.317351	0.109756
8.480000	-0.308871	-0.057202	0.251670	0.211352	-0.323628	0.112276
8.485000	-0.308760	-0.056541	0.252220	0.210907	-0.323882	0.112975
8.490000	-0.303984	-0.054259	0.249725	0.206832	-0.319684	0.112852
8.495000	-0.295087	-0.050574	0.244513	0.199567	-0.311538	0.111971
8.500000	-0.281643	-0.045941	0.235702	0.189130	-0.298689	0.109558
8.505000	-0.262104	-0.039905	0.222200	0.174365	-0.279613	0.105248
8.510000	-0.234316	-0.031901	0.202415	0.153700	-0.252146	0.098446
8.515000	-0.196744	-0.021022	0.175722	0.125727	-0.215043	0.089316
8.520000	-0.149332	-0.006756	0.142576	0.090117	-0.168533	0.078416
8.525000	-0.093293	0.009645	0.102938	0.048295	-0.113294	0.065000
8.530000	-0.031440	0.025878	0.057318	0.003212	-0.051245	0.048033
8.535000	0.031888	0.040467	0.008578	-0.041774	0.013458	0.028316
8.540000	0.093721	0.052942	-0.040780	-0.084676	0.077654	0.007022
8.545000	0.154054	0.064097	-0.089957	-0.125949	0.140879	-0.014930
8.550000	0.213241	0.075024	-0.138216	-0.166430	0.202914	-0.036484
8.555000	0.268849	0.086027	-0.182823	-0.204888	0.260773	-0.055885
8.560000	0.317751	0.096385	-0.221365	-0.239101	0.311259	-0.072157
8.565000	0.356865	0.104930	-0.251935	-0.266618	0.351491	-0.084873
8.570000	0.384014	0.111657	-0.272357	-0.286176	0.378956	-0.092780
8.575000	0.399785	0.116773	-0.283012	-0.298235	0.394213	-0.095978
8.580000	0.406409	0.120086	-0.286323	-0.303972	0.399949	-0.095977
8.585000	0.405812	0.121432	-0.284380	-0.304404	0.398482	-0.094078
8.590000	0.398400	0.120578	-0.277822	-0.299632	0.390417	-0.090784
8.595000	0.382498	0.117028	-0.265471	-0.288401	0.374105	-0.085704
8.600000	0.355753	0.110921	-0.244832	-0.269435	0.346748	-0.077313
8.605000	0.318070	0.102765	-0.215305	-0.242969	0.307944	-0.064975
8.610000	0.273216	0.092691	-0.180526	-0.211256	0.261968	-0.050711
8.615000	0.226692	0.081271	-0.145421	-0.177802	0.214839	-0.037037
8.620000	0.182866	0.070395	-0.112471	-0.146221	0.170513	-0.024292
8.625000	0.144657	0.061279	-0.083379	-0.118897	0.131657	-0.012759
8.630000	0.113333	0.053401	-0.059932	-0.096264	0.100035	-0.003770
8.635000	0.088528	0.047083	-0.041445	-0.078294	0.075040	0.003255
8.640000	0.069491	0.043252	-0.026238	-0.065092	0.055269	0.009823
8.645000	0.055705	0.041651	-0.014053	-0.056209	0.040275	0.015934
8.650000	0.046541	0.041725	-0.004816	-0.050961	0.029651	0.021310
8.655000	0.041659	0.043023	0.001364	-0.048891	0.023264	0.025627
8.660000	0.041614	0.044785	0.003170	-0.049883	0.022196	0.027687
8.665000	0.046658	0.046773	0.000114	-0.053942	0.026872	0.027070
8.670000	0.056359	0.049924	-0.006435	-0.061363	0.036254	0.025109
8.675000	0.069761	0.054756	-0.015005	-0.071889	0.048939	0.022950
8.680000	0.085836	0.060980	-0.024856	-0.084765	0.063908	0.020856
8.685000	0.103761	0.067713	-0.036048	-0.099000	0.080718	0.018282
8.690000	0.122968	0.073869	-0.049100	-0.113644	0.099343	0.014301
8.695000	0.142626	0.079133	-0.063493	-0.128033	0.119002	0.009030
8.700000	0.161594	0.084442	-0.077152	-0.142048	0.137840	0.004208
8.705000	0.178385	0.089768	-0.088617	-0.154818	0.154153	0.000665
8.710000	0.191655	0.093450	-0.098206	-0.164605	0.167351	-0.002746
8.715000	0.200291	0.094474	-0.105817	-0.170183	0.176732	-0.006549
8.720000	0.203850	0.093219	-0.110631	-0.171513	0.181565	-0.010052
8.725000	0.203067	0.089904	-0.113164	-0.169147	0.182576	-0.013429
8.730000	0.198381	0.084461	-0.113920	-0.163299	0.180307	-0.017008
8.735000	0.189502	0.078041	-0.111461	-0.154466	0.173761	-0.019295
8.740000	0.176617	0.072007	-0.104610	-0.143543	0.162366	-0.018824
8.745000	0.160272	0.065666	-0.094606	-0.130445	0.147153	-0.016708
8.750000	0.141149	0.058439	-0.082710	-0.115232	0.129245	-0.014013
8.755000	0.120696	0.051225	-0.069471	-0.099259	0.109793	-0.010534
8.760000	0.101991	0.044737	-0.057253	-0.084713	0.091940	-0.007226
8.765000	0.088402	0.039233	-0.049168	-0.073690	0.079426	-0.005736
8.770000	0.082140	0.035235	-0.046905	-0.067767	0.074504	-0.006738
8.775000	0.083736	0.032446	-0.051290	-0.067078	0.077957	-0.010879
8.780000	0.092112	0.030262	-0.061850	-0.070653	0.088890	-0.018237
8.785000	0.105226	0.029482	-0.075744	-0.077774	0.104483	-0.026709
8.790000	0.120594	0.030697	-0.089896	-0.087348	0.121526	-0.034178
8.795000	0.135566	0.033002	-0.102563	-0.097323	0.137484	-0.040161
8.800000	0.146895	0.035640	-0.111254	-0.105387	0.149043	-0.043656
8.805000	0.151752	0.038088	-0.113664	-0.109604	0.153237	-0.043634
8.810000	0.148168	0.038525	-0.109643	-0.107787	0.148847	-0.041060
8.815000	0.135161	0.033429	-0.101733	-0.097335	0.136771	-0.039435
8.820000	0.112667	0.020352	-0.092315	-0.076798	0.118346	-0.041548
8.825000	0.081229	-0.000630	-0.081858	-0.046534	0.094158	-0.047625
8.830000	0.042328	-0.027284	-0.069611	-0.008686	0.064628	-0.055942
8.835000	-0.001637	-0.055606	-0.053969	0.033050	0.030214	-0.063263
8.840000	-0.048248	-0.082014	-0.033765	0.075207	-0.008362	-0.066845
8.845000	-0.094508	-0.104345	-0.009838	0.114808	-0.048884	-0.065924
8.850000	-0.136618	-0.120780	0.015839	0.148609	-0.088021	-0.060588
8.855000	-0.171268	-0.130523	0.040745	0.174239	-0.122406	-0.051834
8.860000	-0.197195	-0.134615	0.062580	0.191571	-0.149982	-0.041589
8.865000	-0.214391	-0.134102	0.080289	0.201203	-0.170134	-0.031069
8.870000	-0.223663	-0.129147	0.094517	0.203695	-0.183701	-0.019994
8.875000	-0.226609	-0.120362	0.106246	0.200324	-0.192174	-0.008150
8.880000	-0.224718	-0.109088	0.115630	0.192723	-0.196500	0.003777
8.885000	-0.219196	-0.095833	0.123363	0.181881	-0.197776	0.015895
8.890000	-0.209147	-0.079862	0.129285	0.166860	-0.195394	0.028534
8.895000	-0.191734	-0.060902	0.130832	0.145859	-0.186234	0.040375
8.900000	-0.164939	-0.038767	0.126172	0.117609	-0.168073	0.050464
8.905000	-0.129384	-0.014266	0.115118	0.082936	-0.141163	0.058227
8.910000	-0.087875	0.010004	0.097879	0.044959	-0.107245	0.062286
8.915000	-0.044357	0.031255	0.075612	0.007565	-0.069264	0.061699
8.920000	-0.002278	0.047662	0.049940	-0.026202	-0.030148	0.056350
8.925000	0.037096	0.058360	0.021264	-0.055112	0.009141	0.045971
8.930000	0.073735	0.063062	-0.010673	-0.078979	0.048733	0.030247
8.935000	0.107219	0.062621	-0.044597	-0.098057	0.087651	0.010406
8.940000	0.137921	0.059299	-0.078622	-0.113865	0.125022	-0.011156
8.945000	0.167777	0.055829	-0.111949	-0.129099	0.161500	-0.032401
8.950000	0.198863	0.055595	-0.143268	-0.146912	0.197530	-0.050618
8.955000	0.232770	0.061081	-0.171689	-0.169655	0.233514	-0.063859
8.960000	0.270201	0.072136	-0.198064	-0.197648	0.270353	-0.072704
8.965000	0.309967	0.087913	-0.222055	-0.229716	0.307163	-0.077447
8.970000	0.349307	0.106823	-0.242485	-0.263347	0.341671	-0.078324
